#, session_id, temperature, start_freq, increment, num_increments, num_avg, v_range, pga_gain, gain_factor
#mahin_nh4no3_1,21.3,10000,300,300,4,1,1,1.01432854305411e-08
freq, real, imaginary, concentration
10000,1216,10000,0.75
10300,1344,10300,0.75
10600,1452,10600,0.75
10900,1544,10900,0.75
11200,1637,11200,0.75
11500,1734,11500,0.75
11800,1825,11800,0.75
12100,1921,12100,0.75
12400,2015,12400,0.75
12700,2101,12700,0.75
13000,2196,13000,0.75
13300,2290,13300,0.75
13600,2379,13600,0.75
13900,2478,13900,0.75
14200,2556,14200,0.75
14500,2644,14500,0.75
14800,2732,14800,0.75
15100,2818,15100,0.75
15400,2906,15400,0.75
15700,2989,15700,0.75
16000,3078,16000,0.75
16300,3163,16300,0.75
16600,3243,16600,0.75
16900,3330,16900,0.75
17200,3412,17200,0.75
17500,3494,17500,0.75
17800,3575,17800,0.75
18100,3669,18100,0.75
18400,3752,18400,0.75
18700,3832,18700,0.75
19000,3908,19000,0.75
19300,3989,19300,0.75
19600,4073,19600,0.75
19900,4151,19900,0.75
20200,4236,20200,0.75
20500,4309,20500,0.75
20800,4391,20800,0.75
21100,4469,21100,0.75
21400,4551,21400,0.75
21700,4629,21700,0.75
22000,4710,22000,0.75
22300,4791,22300,0.75
22600,4864,22600,0.75
22900,4949,22900,0.75
23200,5024,23200,0.75
23500,5105,23500,0.75
23800,5301,23800,0.75
24100,5257,24100,0.75
24400,5329,24400,0.75
24700,5408,24700,0.75
25000,5586,25000,0.75
25300,5569,25300,0.75
25600,5643,25600,0.75
25900,5720,25900,0.75
26200,5798,26200,0.75
26500,5874,26500,0.75
26800,5946,26800,0.75
27100,6018,27100,0.75
27400,6096,27400,0.75
27700,6173,27700,0.75
28000,6256,28000,0.75
28300,6328,28300,0.75
28600,6405,28600,0.75
28900,6479,28900,0.75
29200,6554,29200,0.75
29500,6625,29500,0.75
29800,6700,29800,0.75
30100,6779,30100,0.75
30400,6854,30400,0.75
30700,6927,30700,0.75
31000,6999,31000,0.75
31300,7054,31300,0.75
31600,7147,31600,0.75
31900,7220,31900,0.75
32200,7291,32200,0.75
32500,7368,32500,0.75
32800,7434,32800,0.75
33100,7511,33100,0.75
33400,7585,33400,0.75
33700,7661,33700,0.75
34000,7735,34000,0.75
34300,7805,34300,0.75
34600,7877,34600,0.75
34900,7947,34900,0.75
35200,8021,35200,0.75
35500,8095,35500,0.75
35800,8168,35800,0.75
36100,8240,36100,0.75
36400,8309,36400,0.75
36700,8381,36700,0.75
37000,8453,37000,0.75
37300,8524,37300,0.75
37600,8594,37600,0.75
37900,8665,37900,0.75
38200,8737,38200,0.75
38500,8883,38500,0.75
38800,8876,38800,0.75
39100,8949,39100,0.75
39400,9022,39400,0.75
39700,9089,39700,0.75
40000,9153,40000,0.75
40300,9231,40300,0.75
40600,9302,40600,0.75
40900,9371,40900,0.75
41200,9437,41200,0.75
41500,9510,41500,0.75
41800,9584,41800,0.75
42100,9650,42100,0.75
42400,9716,42400,0.75
42700,9785,42700,0.75
43000,9859,43000,0.75
43300,9923,43300,0.75
43600,9996,43600,0.75
43900,10063,43900,0.75
44200,10128,44200,0.75
44500,10198,44500,0.75
44800,10264,44800,0.75
45100,10334,45100,0.75
45400,10310,45400,0.75
45700,10472,45700,0.75
46000,10538,46000,0.75
46300,10597,46300,0.75
46600,10670,46600,0.75
46900,10735,46900,0.75
47200,10803,47200,0.75
47500,10874,47500,0.75
47800,10940,47800,0.75
48100,11005,48100,0.75
48400,11070,48400,0.75
48700,11134,48700,0.75
49000,11203,49000,0.75
49300,11271,49300,0.75
49600,11334,49600,0.75
49900,11398,49900,0.75
50200,11466,50200,0.75
50500,11532,50500,0.75
50800,11597,50800,0.75
51100,11658,51100,0.75
51400,11726,51400,0.75
51700,11785,51700,0.75
52000,11853,52000,0.75
52300,11917,52300,0.75
52600,11948,52600,0.75
52900,12046,52900,0.75
53200,12111,53200,0.75
53500,12175,53500,0.75
53800,12240,53800,0.75
54100,12300,54100,0.75
54400,12361,54400,0.75
54700,12424,54700,0.75
55000,12495,55000,0.75
55300,12549,55300,0.75
55600,12414,55600,0.75
55900,12677,55900,0.75
56200,12739,56200,0.75
56500,12800,56500,0.75
56800,12864,56800,0.75
57100,12926,57100,0.75
57400,12986,57400,0.75
57700,13053,57700,0.75
58000,13109,58000,0.75
58300,13169,58300,0.75
58600,13230,58600,0.75
58900,13281,58900,0.75
59200,13353,59200,0.75
59500,13413,59500,0.75
59800,13475,59800,0.75
60100,13537,60100,0.75
60400,13594,60400,0.75
60700,13655,60700,0.75
61000,13717,61000,0.75
61300,13776,61300,0.75
61600,13835,61600,0.75
61900,13893,61900,0.75
62200,13950,62200,0.75
62500,14402,62500,0.75
62800,14069,62800,0.75
63100,14130,63100,0.75
63400,14187,63400,0.75
63700,14246,63700,0.75
64000,14306,64000,0.75
64300,14364,64300,0.75
64600,14422,64600,0.75
64900,14482,64900,0.75
65200,14534,65200,0.75
65500,14597,65500,0.75
65800,14652,65800,0.75
66100,14708,66100,0.75
66400,14766,66400,0.75
66700,14826,66700,0.75
67000,14883,67000,0.75
67300,14937,67300,0.75
67600,14995,67600,0.75
67900,15050,67900,0.75
68200,15111,68200,0.75
68500,15165,68500,0.75
68800,15217,68800,0.75
69100,15272,69100,0.75
69400,15329,69400,0.75
69700,15386,69700,0.75
70000,15438,70000,0.75
70300,15496,70300,0.75
70600,15553,70600,0.75
70900,15603,70900,0.75
71200,15659,71200,0.75
71500,15596,71500,0.75
71800,15767,71800,0.75
72100,15818,72100,0.75
72400,15870,72400,0.75
72700,15925,72700,0.75
73000,15979,73000,0.75
73300,16033,73300,0.75
73600,16085,73600,0.75
73900,16137,73900,0.75
74200,16190,74200,0.75
74500,16238,74500,0.75
74800,16293,74800,0.75
75100,16342,75100,0.75
75400,16393,75400,0.75
75700,16446,75700,0.75
76000,16495,76000,0.75
76300,16545,76300,0.75
76600,16594,76600,0.75
76900,16576,76900,0.75
77200,16693,77200,0.75
77500,16740,77500,0.75
77800,16790,77800,0.75
78100,16837,78100,0.75
78400,16886,78400,0.75
78700,16936,78700,0.75
79000,16980,79000,0.75
79300,17027,79300,0.75
79600,17076,79600,0.75
79900,17126,79900,0.75
80200,17171,80200,0.75
80500,17214,80500,0.75
80800,17264,80800,0.75
81100,17299,81100,0.75
81400,17348,81400,0.75
81700,17395,81700,0.75
82000,17437,82000,0.75
82300,17482,82300,0.75
82600,17526,82600,0.75
82900,17570,82900,0.75
83200,17655,83200,0.75
83500,17652,83500,0.75
83800,17694,83800,0.75
84100,17737,84100,0.75
84400,17776,84400,0.75
84700,17819,84700,0.75
85000,17859,85000,0.75
85300,17898,85300,0.75
85600,17938,85600,0.75
85900,17979,85900,0.75
86200,18015,86200,0.75
86500,18055,86500,0.75
86800,18091,86800,0.75
87100,18133,87100,0.75
87400,18170,87400,0.75
87700,18208,87700,0.75
88000,18246,88000,0.75
88300,18281,88300,0.75
88600,18316,88600,0.75
88900,18362,88900,0.75
89200,18385,89200,0.75
89500,18420,89500,0.75
89800,18454,89800,0.75
90100,18488,90100,0.75
90400,18520,90400,0.75
90700,18554,90700,0.75
91000,18601,91000,0.75
91300,18625,91300,0.75
91600,18652,91600,0.75
91900,18685,91900,0.75
92200,18718,92200,0.75
92500,18748,92500,0.75
92800,18776,92800,0.75
93100,18807,93100,0.75
93400,18833,93400,0.75
93700,18866,93700,0.75
94000,18896,94000,0.75
94300,18922,94300,0.75
94600,18951,94600,0.75
94900,18979,94900,0.75
95200,19015,95200,0.75
95500,19034,95500,0.75
95800,19057,95800,0.75
96100,19093,96100,0.75
96400,19110,96400,0.75
96700,19136,96700,0.75
97000,19161,97000,0.75
97300,19186,97300,0.75
97600,19208,97600,0.75
97900,19232,97900,0.75
98200,19254,98200,0.75
98500,19274,98500,0.75
98800,19300,98800,0.75
99100,19322,99100,0.75
99400,19344,99400,0.75
99700,19365,99700,0.75
10000,1712,10000,1.5
10300,1824,10300,1.5
10600,1945,10600,1.5
10900,2037,10900,1.5
11200,2137,11200,1.5
11500,2247,11500,1.5
11800,2342,11800,1.5
12100,2440,12100,1.5
12400,2550,12400,1.5
12700,2640,12700,1.5
13000,2745,13000,1.5
13300,2848,13300,1.5
13600,2943,13600,1.5
13900,3032,13900,1.5
14200,3138,14200,1.5
14500,3250,14500,1.5
14800,3332,14800,1.5
15100,3428,15100,1.5
15400,3524,15400,1.5
15700,3615,15700,1.5
16000,3710,16000,1.5
16300,3810,16300,1.5
16600,3893,16600,1.5
16900,3993,16900,1.5
17200,4083,17200,1.5
17500,4178,17500,1.5
17800,4266,17800,1.5
18100,4360,18100,1.5
18400,4457,18400,1.5
18700,4550,18700,1.5
19000,4631,19000,1.5
19300,4722,19300,1.5
19600,4822,19600,1.5
19900,4907,19900,1.5
20200,4995,20200,1.5
20500,5081,20500,1.5
20800,5171,20800,1.5
21100,5257,21100,1.5
21400,5352,21400,1.5
21700,5439,21700,1.5
22000,5525,22000,1.5
22300,5618,22300,1.5
22600,5700,22600,1.5
22900,5800,22900,1.5
23200,5880,23200,1.5
23500,5970,23500,1.5
23800,6128,23800,1.5
24100,6144,24100,1.5
24400,6228,24400,1.5
24700,6318,24700,1.5
25000,6553,25000,1.5
25300,6496,25300,1.5
25600,6581,25600,1.5
25900,6669,25900,1.5
26200,6761,26200,1.5
26500,6847,26500,1.5
26800,6927,26800,1.5
27100,7010,27100,1.5
27400,7103,27400,1.5
27700,7187,27700,1.5
28000,7275,28000,1.5
28300,7356,28300,1.5
28600,7445,28600,1.5
28900,7528,28900,1.5
29200,7618,29200,1.5
29500,7702,29500,1.5
29800,7793,29800,1.5
30100,7879,30100,1.5
30400,7961,30400,1.5
30700,8046,30700,1.5
31000,8130,31000,1.5
31300,8211,31300,1.5
31600,8301,31600,1.5
31900,8382,31900,1.5
32200,8466,32200,1.5
32500,8554,32500,1.5
32800,8644,32800,1.5
33100,8724,33100,1.5
33400,8805,33400,1.5
33700,8895,33700,1.5
34000,8977,34000,1.5
34300,9060,34300,1.5
34600,9140,34600,1.5
34900,9221,34900,1.5
35200,9308,35200,1.5
35500,9384,35500,1.5
35800,9470,35800,1.5
36100,9556,36100,1.5
36400,9636,36400,1.5
36700,9721,36700,1.5
37000,9809,37000,1.5
37300,9879,37300,1.5
37600,9960,37600,1.5
37900,10043,37900,1.5
38200,10126,38200,1.5
38500,10250,38500,1.5
38800,10284,38800,1.5
39100,10368,39100,1.5
39400,10449,39400,1.5
39700,10527,39700,1.5
40000,10562,40000,1.5
40300,10687,40300,1.5
40600,10769,40600,1.5
40900,10848,40900,1.5
41200,10924,41200,1.5
41500,11006,41500,1.5
41800,11084,41800,1.5
42100,11163,42100,1.5
42400,11238,42400,1.5
42700,11314,42700,1.5
43000,11395,43000,1.5
43300,11470,43300,1.5
43600,11552,43600,1.5
43900,11626,43900,1.5
44200,11699,44200,1.5
44500,11776,44500,1.5
44800,11853,44800,1.5
45100,11929,45100,1.5
45400,12093,45400,1.5
45700,12084,45700,1.5
46000,12155,46000,1.5
46300,12226,46300,1.5
46600,12303,46600,1.5
46900,12379,46900,1.5
47200,12453,47200,1.5
47500,12528,47500,1.5
47800,12606,47800,1.5
48100,12675,48100,1.5
48400,12742,48400,1.5
48700,12821,48700,1.5
49000,12893,49000,1.5
49300,12963,49300,1.5
49600,13036,49600,1.5
49900,13110,49900,1.5
50200,13177,50200,1.5
50500,13248,50500,1.5
50800,13317,50800,1.5
51100,13385,51100,1.5
51400,13457,51400,1.5
51700,13526,51700,1.5
52000,13596,52000,1.5
52300,13667,52300,1.5
52600,13739,52600,1.5
52900,13802,52900,1.5
53200,13870,53200,1.5
53500,13942,53500,1.5
53800,14005,53800,1.5
54100,14074,54100,1.5
54400,14139,54400,1.5
54700,14207,54700,1.5
55000,14269,55000,1.5
55300,14336,55300,1.5
55600,14617,55600,1.5
55900,14469,55900,1.5
56200,14537,56200,1.5
56500,14599,56500,1.5
56800,14664,56800,1.5
57100,14729,57100,1.5
57400,14792,57400,1.5
57700,14885,57700,1.5
58000,14917,58000,1.5
58300,14978,58300,1.5
58600,15044,58600,1.5
58900,15111,58900,1.5
59200,15165,59200,1.5
59500,15225,59500,1.5
59800,15291,59800,1.5
60100,15351,60100,1.5
60400,15409,60400,1.5
60700,15469,60700,1.5
61000,15531,61000,1.5
61300,15589,61300,1.5
61600,15649,61600,1.5
61900,15707,61900,1.5
62200,15761,62200,1.5
62500,15487,62500,1.5
62800,15881,62800,1.5
63100,15938,63100,1.5
63400,15994,63400,1.5
63700,16052,63700,1.5
64000,16108,64000,1.5
64300,16161,64300,1.5
64600,16218,64600,1.5
64900,16272,64900,1.5
65200,16321,65200,1.5
65500,16382,65500,1.5
65800,16431,65800,1.5
66100,16487,66100,1.5
66400,16546,66400,1.5
66700,16557,66700,1.5
67000,16649,67000,1.5
67300,16699,67300,1.5
67600,16752,67600,1.5
67900,16801,67900,1.5
68200,16858,68200,1.5
68500,16903,68500,1.5
68800,16953,68800,1.5
69100,17000,69100,1.5
69400,17053,69400,1.5
69700,17101,69700,1.5
70000,17150,70000,1.5
70300,17199,70300,1.5
70600,17249,70600,1.5
70900,17292,70900,1.5
71200,17341,71200,1.5
71500,17584,71500,1.5
71800,17433,71800,1.5
72100,17479,72100,1.5
72400,17516,72400,1.5
72700,17570,72700,1.5
73000,17618,73000,1.5
73300,17659,73300,1.5
73600,17702,73600,1.5
73900,17745,73900,1.5
74200,17788,74200,1.5
74500,17831,74500,1.5
74800,17874,74800,1.5
75100,17913,75100,1.5
75400,17959,75400,1.5
75700,18001,75700,1.5
76000,18041,76000,1.5
76300,18079,76300,1.5
76600,18119,76600,1.5
76900,18160,76900,1.5
77200,18197,77200,1.5
77500,18235,77500,1.5
77800,18273,77800,1.5
78100,18313,78100,1.5
78400,18347,78400,1.5
78700,18385,78700,1.5
79000,18420,79000,1.5
79300,18458,79300,1.5
79600,18495,79600,1.5
79900,18530,79900,1.5
80200,18565,80200,1.5
80500,18598,80500,1.5
80800,18639,80800,1.5
81100,18672,81100,1.5
81400,18699,81400,1.5
81700,18735,81700,1.5
82000,18765,82000,1.5
82300,18797,82300,1.5
82600,18830,82600,1.5
82900,18861,82900,1.5
83200,18882,83200,1.5
83500,18920,83500,1.5
83800,18949,83800,1.5
84100,18980,84100,1.5
84400,19009,84400,1.5
84700,19037,84700,1.5
85000,19068,85000,1.5
85300,19093,85300,1.5
85600,19119,85600,1.5
85900,19147,85900,1.5
86200,19168,86200,1.5
86500,19200,86500,1.5
86800,19223,86800,1.5
87100,19253,87100,1.5
87400,19279,87400,1.5
87700,19299,87700,1.5
88000,19321,88000,1.5
88300,19348,88300,1.5
88600,19369,88600,1.5
88900,19403,88900,1.5
89200,19415,89200,1.5
89500,19436,89500,1.5
89800,19458,89800,1.5
90100,19481,90100,1.5
90400,19499,90400,1.5
90700,19519,90700,1.5
91000,19546,91000,1.5
91300,19557,91300,1.5
91600,19577,91600,1.5
91900,19595,91900,1.5
92200,19613,92200,1.5
92500,19630,92500,1.5
92800,19648,92800,1.5
93100,19662,93100,1.5
93400,19676,93400,1.5
93700,19694,93700,1.5
94000,19710,94000,1.5
94300,19722,94300,1.5
94600,19734,94600,1.5
94900,19754,94900,1.5
95200,19759,95200,1.5
95500,19777,95500,1.5
95800,19792,95800,1.5
96100,19797,96100,1.5
96400,19813,96400,1.5
96700,19826,96700,1.5
97000,19837,97000,1.5
97300,19846,97300,1.5
97600,19856,97600,1.5
97900,19865,97900,1.5
98200,19874,98200,1.5
98500,19884,98500,1.5
98800,19893,98800,1.5
99100,19903,99100,1.5
99400,19906,99400,1.5
99700,19913,99700,1.5
10000,2110,10000,3.0
10300,2244,10300,3.0
10600,2372,10600,3.0
10900,2475,10900,3.0
11200,2586,11200,3.0
11500,2706,11500,3.0
11800,2808,11800,3.0
12100,2923,12100,3.0
12400,3038,12400,3.0
12700,3147,12700,3.0
13000,3253,13000,3.0
13300,3367,13300,3.0
13600,3473,13600,3.0
13900,3543,13900,3.0
14200,3687,14200,3.0
14500,3803,14500,3.0
14800,3901,14800,3.0
15100,4005,15100,3.0
15400,4110,15400,3.0
15700,4214,15700,3.0
16000,4310,16000,3.0
16300,4427,16300,3.0
16600,4528,16600,3.0
16900,4634,16900,3.0
17200,4731,17200,3.0
17500,4829,17500,3.0
17800,4932,17800,3.0
18100,5039,18100,3.0
18400,5139,18400,3.0
18700,5235,18700,3.0
19000,5335,19000,3.0
19300,5432,19300,3.0
19600,5535,19600,3.0
19900,5621,19900,3.0
20200,5732,20200,3.0
20500,5828,20500,3.0
20800,5929,20800,3.0
21100,6025,21100,3.0
21400,6121,21400,3.0
21700,6215,21700,3.0
22000,6315,22000,3.0
22300,6410,22300,3.0
22600,6502,22600,3.0
22900,6596,22900,3.0
23200,6694,23200,3.0
23500,6787,23500,3.0
23800,6871,23800,3.0
24100,6974,24100,3.0
24400,7061,24400,3.0
24700,7160,24700,3.0
25000,7147,25000,3.0
25300,7351,25300,3.0
25600,7443,25600,3.0
25900,7540,25900,3.0
26200,7634,26200,3.0
26500,7726,26500,3.0
26800,7815,26800,3.0
27100,7906,27100,3.0
27400,7999,27400,3.0
27700,8085,27700,3.0
28000,8175,28000,3.0
28300,8273,28300,3.0
28600,8364,28600,3.0
28900,8442,28900,3.0
29200,8539,29200,3.0
29500,8625,29500,3.0
29800,8709,29800,3.0
30100,8805,30100,3.0
30400,8893,30400,3.0
30700,8979,30700,3.0
31000,9067,31000,3.0
31300,9159,31300,3.0
31600,9239,31600,3.0
31900,9325,31900,3.0
32200,9413,32200,3.0
32500,9498,32500,3.0
32800,9585,32800,3.0
33100,9671,33100,3.0
33400,9755,33400,3.0
33700,9847,33700,3.0
34000,9932,34000,3.0
34300,10012,34300,3.0
34600,10094,34600,3.0
34900,10175,34900,3.0
35200,10263,35200,3.0
35500,10348,35500,3.0
35800,10435,35800,3.0
36100,10517,36100,3.0
36400,10596,36400,3.0
36700,10672,36700,3.0
37000,10755,37000,3.0
37300,10840,37300,3.0
37600,10925,37600,3.0
37900,11004,37900,3.0
38200,11088,38200,3.0
38500,11269,38500,3.0
38800,11245,38800,3.0
39100,11326,39100,3.0
39400,11406,39400,3.0
39700,11484,39700,3.0
40000,11574,40000,3.0
40300,11641,40300,3.0
40600,11722,40600,3.0
40900,11801,40900,3.0
41200,11875,41200,3.0
41500,11956,41500,3.0
41800,12037,41800,3.0
42100,12111,42100,3.0
42400,12184,42400,3.0
42700,12261,42700,3.0
43000,12335,43000,3.0
43300,12412,43300,3.0
43600,12493,43600,3.0
43900,12566,43900,3.0
44200,12645,44200,3.0
44500,12715,44500,3.0
44800,12787,44800,3.0
45100,12860,45100,3.0
45400,12996,45400,3.0
45700,13011,45700,3.0
46000,13083,46000,3.0
46300,13164,46300,3.0
46600,13224,46600,3.0
46900,13298,46900,3.0
47200,13367,47200,3.0
47500,13442,47500,3.0
47800,13516,47800,3.0
48100,13584,48100,3.0
48400,13660,48400,3.0
48700,13721,48700,3.0
49000,13794,49000,3.0
49300,13857,49300,3.0
49600,13932,49600,3.0
49900,13999,49900,3.0
50200,14067,50200,3.0
50500,14137,50500,3.0
50800,14202,50800,3.0
51100,14267,51100,3.0
51400,14336,51400,3.0
51700,14400,51700,3.0
52000,14467,52000,3.0
52300,14535,52300,3.0
52600,14609,52600,3.0
52900,14666,52900,3.0
53200,14735,53200,3.0
53500,14796,53500,3.0
53800,14859,53800,3.0
54100,14923,54100,3.0
54400,14986,54400,3.0
54700,15048,54700,3.0
55000,15118,55000,3.0
55300,15172,55300,3.0
55600,15269,55600,3.0
55900,15299,55900,3.0
56200,15364,56200,3.0
56500,15421,56500,3.0
56800,15481,56800,3.0
57100,15543,57100,3.0
57400,15601,57400,3.0
57700,15644,57700,3.0
58000,15720,58000,3.0
58300,15775,58300,3.0
58600,15839,58600,3.0
58900,15896,58900,3.0
59200,15953,59200,3.0
59500,16007,59500,3.0
59800,16067,59800,3.0
60100,16124,60100,3.0
60400,16183,60400,3.0
60700,16232,60700,3.0
61000,16294,61000,3.0
61300,16347,61300,3.0
61600,16402,61600,3.0
61900,16454,61900,3.0
62200,16505,62200,3.0
62500,16346,62500,3.0
62800,16614,62800,3.0
63100,16666,63100,3.0
63400,16718,63400,3.0
63700,16773,63700,3.0
64000,16820,64000,3.0
64300,16875,64300,3.0
64600,16924,64600,3.0
64900,16976,64900,3.0
65200,17036,65200,3.0
65500,17077,65500,3.0
65800,17131,65800,3.0
66100,17173,66100,3.0
66400,17222,66400,3.0
66700,17232,66700,3.0
67000,17319,67000,3.0
67300,17367,67300,3.0
67600,17413,67600,3.0
67900,17457,67900,3.0
68200,17504,68200,3.0
68500,17548,68500,3.0
68800,17596,68800,3.0
69100,17640,69100,3.0
69400,17685,69400,3.0
69700,17729,69700,3.0
70000,17775,70000,3.0
70300,17817,70300,3.0
70600,17858,70600,3.0
70900,17902,70900,3.0
71200,17940,71200,3.0
71500,18147,71500,3.0
71800,18027,71800,3.0
72100,18067,72100,3.0
72400,18111,72400,3.0
72700,18148,72700,3.0
73000,18184,73000,3.0
73300,18226,73300,3.0
73600,18265,73600,3.0
73900,18303,73900,3.0
74200,18341,74200,3.0
74500,18378,74500,3.0
74800,18418,74800,3.0
75100,18454,75100,3.0
75400,18492,75400,3.0
75700,18527,75700,3.0
76000,18562,76000,3.0
76300,18597,76300,3.0
76600,18633,76600,3.0
76900,18656,76900,3.0
77200,18700,77200,3.0
77500,18731,77500,3.0
77800,18765,77800,3.0
78100,18796,78100,3.0
78400,18830,78400,3.0
78700,18861,78700,3.0
79000,18890,79000,3.0
79300,18924,79300,3.0
79600,18955,79600,3.0
79900,18984,79900,3.0
80200,19013,80200,3.0
80500,19042,80500,3.0
80800,19075,80800,3.0
81100,19092,81100,3.0
81400,19127,81400,3.0
81700,19156,81700,3.0
82000,19182,82000,3.0
82300,19208,82300,3.0
82600,19237,82600,3.0
82900,19262,82900,3.0
83200,19257,83200,3.0
83500,19309,83500,3.0
83800,19333,83800,3.0
84100,19358,84100,3.0
84400,19382,84400,3.0
84700,19403,84700,3.0
85000,19427,85000,3.0
85300,19447,85300,3.0
85600,19470,85600,3.0
85900,19492,85900,3.0
86200,19518,86200,3.0
86500,19533,86500,3.0
86800,19551,86800,3.0
87100,19573,87100,3.0
87400,19594,87400,3.0
87700,19611,87700,3.0
88000,19630,88000,3.0
88300,19648,88300,3.0
88600,19663,88600,3.0
88900,19679,88900,3.0
89200,19698,89200,3.0
89500,19714,89500,3.0
89800,19730,89800,3.0
90100,19747,90100,3.0
90400,19757,90400,3.0
90700,19773,90700,3.0
91000,19783,91000,3.0
91300,19803,91300,3.0
91600,19816,91600,3.0
91900,19827,91900,3.0
92200,19842,92200,3.0
92500,19852,92500,3.0
92800,19862,92800,3.0
93100,19873,93100,3.0
93400,19882,93400,3.0
93700,19893,93700,3.0
94000,19903,94000,3.0
94300,19910,94300,3.0
94600,19920,94600,3.0
94900,19929,94900,3.0
95200,19935,95200,3.0
95500,19942,95500,3.0
95800,19948,95800,3.0
96100,19955,96100,3.0
96400,19962,96400,3.0
96700,19968,96700,3.0
97000,19973,97000,3.0
97300,19977,97300,3.0
97600,19981,97600,3.0
97900,19987,97900,3.0
98200,19987,98200,3.0
98500,19992,98500,3.0
98800,19994,98800,3.0
99100,19996,99100,3.0
99400,19997,99400,3.0
