#, session_id, temperature, start_freq, increment, num_increments, num_avg, v_range, pga_gain, gain_factor
#small_nh4no3_2,20.8,100,50,200,4,1,1,1.0126858710209283e-08
freq, real, imaginary, concentration
100,17298,100,0.625
150,5496,150,0.625
200,226,200,0.625
250,120,250,0.625
300,72,300,0.625
350,-109,350,0.625
400,-714,400,0.625
450,-2136,450,0.625
500,-4669,500,0.625
550,-8197,550,0.625
600,-12278,600,0.625
650,-16401,650,0.625
700,-20096,700,0.625
750,-23039,750,0.625
800,-25005,800,0.625
850,-25892,850,0.625
900,-25722,900,0.625
950,-24610,950,0.625
1000,-22805,1000,0.625
1050,-20621,1050,0.625
1100,-18299,1100,0.625
1150,-15974,1150,0.625
1200,-13767,1200,0.625
1250,-11723,1250,0.625
1300,-9872,1300,0.625
1350,-8221,1350,0.625
1400,-6770,1400,0.625
1450,-5505,1450,0.625
1500,-4461,1500,0.625
1550,-3672,1550,0.625
1600,-3152,1600,0.625
1650,-2897,1650,0.625
1700,-2854,1700,0.625
1750,-2981,1750,0.625
1800,-3213,1800,0.625
1850,-3487,1850,0.625
1900,-3747,1900,0.625
1950,-3951,1950,0.625
2000,-4080,2000,0.625
2050,-4135,2050,0.625
2100,-4132,2100,0.625
2150,-4074,2150,0.625
2200,-3969,2200,0.625
2250,-3828,2250,0.625
2300,-3660,2300,0.625
2350,-3470,2350,0.625
2400,-3265,2400,0.625
2450,-3041,2450,0.625
2500,-2840,2500,0.625
2550,-2661,2550,0.625
2600,-2518,2600,0.625
2650,-2430,2650,0.625
2700,-2379,2700,0.625
2750,-2366,2750,0.625
2800,-2380,2800,0.625
2850,-2404,2850,0.625
2900,-2432,2900,0.625
2950,-2442,2950,0.625
3000,-2437,3000,0.625
3050,-2422,3050,0.625
3100,-2385,3100,0.625
3150,-2338,3150,0.625
3200,-2286,3200,0.625
3250,-2221,3250,0.625
3300,-2154,3300,0.625
3350,-2080,3350,0.625
3400,-1996,3400,0.625
3450,-1909,3450,0.625
3500,-1825,3500,0.625
3550,-1760,3550,0.625
3600,-1685,3600,0.625
3650,-1647,3650,0.625
3700,-1612,3700,0.625
3750,-1590,3750,0.625
3800,-1580,3800,0.625
3850,-1573,3850,0.625
3900,-1561,3900,0.625
3950,-1547,3950,0.625
4000,-1529,4000,0.625
4050,-1498,4050,0.625
4100,-1460,4100,0.625
4150,-1431,4150,0.625
4200,-1384,4200,0.625
4250,-1346,4250,0.625
4300,-1297,4300,0.625
4350,-1248,4350,0.625
4400,-1199,4400,0.625
4450,-1143,4450,0.625
4500,-1093,4500,0.625
4550,-1054,4550,0.625
4600,-1011,4600,0.625
4650,-983,4650,0.625
4700,-961,4700,0.625
4750,-946,4750,0.625
4800,-929,4800,0.625
4850,-917,4850,0.625
4900,-905,4900,0.625
4950,-888,4950,0.625
5000,-858,5000,0.625
5050,-825,5050,0.625
5100,-803,5100,0.625
5150,-774,5150,0.625
5200,-737,5200,0.625
5250,-706,5250,0.625
5300,-671,5300,0.625
5350,-636,5350,0.625
5400,-596,5400,0.625
5450,-559,5450,0.625
5500,-530,5500,0.625
5550,-490,5550,0.625
5600,-462,5600,0.625
5650,-440,5650,0.625
5700,-417,5700,0.625
5750,-412,5750,0.625
5800,-386,5800,0.625
5850,-378,5850,0.625
5900,-355,5900,0.625
5950,-341,5950,0.625
6000,-317,6000,0.625
6050,-296,6050,0.625
6100,-277,6100,0.625
6150,-246,6150,0.625
6200,-219,6200,0.625
6250,-195,6250,0.625
6300,-161,6300,0.625
6350,-125,6350,0.625
6400,-95,6400,0.625
6450,-61,6450,0.625
6500,-35,6500,0.625
6550,-6,6550,0.625
6600,17,6600,0.625
6650,36,6650,0.625
6700,56,6700,0.625
6750,76,6750,0.625
6800,86,6800,0.625
6850,90,6850,0.625
6900,125,6900,0.625
6950,125,6950,0.625
7000,158,7000,0.625
7050,168,7050,0.625
7100,194,7100,0.625
7150,205,7150,0.625
7200,235,7200,0.625
7250,274,7250,0.625
7300,283,7300,0.625
7350,297,7350,0.625
7400,328,7400,0.625
7450,355,7450,0.625
7500,375,7500,0.625
7550,402,7550,0.625
7600,417,7600,0.625
7650,435,7650,0.625
7700,448,7700,0.625
7750,471,7750,0.625
7800,484,7800,0.625
7850,504,7850,0.625
7900,517,7900,0.625
7950,535,7950,0.625
8000,559,8000,0.625
8050,575,8050,0.625
8100,595,8100,0.625
8150,616,8150,0.625
8200,650,8200,0.625
8250,657,8250,0.625
8300,678,8300,0.625
8350,696,8350,0.625
8400,721,8400,0.625
8450,743,8450,0.625
8500,763,8500,0.625
8550,786,8550,0.625
8600,799,8600,0.625
8650,814,8650,0.625
8700,836,8700,0.625
8750,846,8750,0.625
8800,860,8800,0.625
8850,880,8850,0.625
8900,893,8900,0.625
8950,912,8950,0.625
9000,930,9000,0.625
9050,949,9050,0.625
9100,949,9100,0.625
9150,987,9150,0.625
9200,1007,9200,0.625
9250,1021,9250,0.625
9300,1044,9300,0.625
9350,1062,9350,0.625
9400,1083,9400,0.625
9450,1093,9450,0.625
9500,1116,9500,0.625
9550,1137,9550,0.625
9600,1156,9600,0.625
9650,1170,9650,0.625
9700,1183,9700,0.625
9750,1201,9750,0.625
9800,1221,9800,0.625
9850,1229,9850,0.625
9900,1239,9900,0.625
9950,1262,9950,0.625
10000,1262,10000,0.625
10050,1295,10050,0.625
100,14658,100,1.25
150,191,150,1.25
200,136,200,1.25
250,116,250,1.25
300,93,300,1.25
350,47,350,1.25
400,-287,400,1.25
450,-1525,450,1.25
500,-4052,500,1.25
550,-7638,550,1.25
600,-11796,600,1.25
650,-15978,650,1.25
700,-19731,700,1.25
750,-22707,750,1.25
800,-24717,800,1.25
850,-25633,850,1.25
900,-25494,900,1.25
950,-24366,950,1.25
1000,-22538,1000,1.25
1050,-20334,1050,1.25
1100,-17996,1100,1.25
1150,-15662,1150,1.25
1200,-13460,1200,1.25
1250,-11414,1250,1.25
1300,-9575,1300,1.25
1350,-7927,1350,1.25
1400,-6484,1400,1.25
1450,-5224,1450,1.25
1500,-4169,1500,1.25
1550,-3379,1550,1.25
1600,-2858,1600,1.25
1650,-2598,1650,1.25
1700,-2557,1700,1.25
1750,-2683,1750,1.25
1800,-2920,1800,1.25
1850,-3194,1850,1.25
1900,-3455,1900,1.25
1950,-3658,1950,1.25
2000,-3784,2000,1.25
2050,-3846,2050,1.25
2100,-3836,2100,1.25
2150,-3778,2150,1.25
2200,-3677,2200,1.25
2250,-3540,2250,1.25
2300,-3369,2300,1.25
2350,-3181,2350,1.25
2400,-2980,2400,1.25
2450,-2762,2450,1.25
2500,-2550,2500,1.25
2550,-2373,2550,1.25
2600,-2231,2600,1.25
2650,-2144,2650,1.25
2700,-2092,2700,1.25
2750,-2082,2750,1.25
2800,-2096,2800,1.25
2850,-2120,2850,1.25
2900,-2148,2900,1.25
2950,-2157,2950,1.25
3000,-2155,3000,1.25
3050,-2140,3050,1.25
3100,-2101,3100,1.25
3150,-2057,3150,1.25
3200,-2002,3200,1.25
3250,-1944,3250,1.25
3300,-1871,3300,1.25
3350,-1797,3350,1.25
3400,-1713,3400,1.25
3450,-1631,3450,1.25
3500,-1542,3500,1.25
3550,-1470,3550,1.25
3600,-1417,3600,1.25
3650,-1352,3650,1.25
3700,-1330,3700,1.25
3750,-1313,3750,1.25
3800,-1299,3800,1.25
3850,-1296,3850,1.25
3900,-1282,3900,1.25
3950,-1266,3950,1.25
4000,-1250,4000,1.25
4050,-1213,4050,1.25
4100,-1197,4100,1.25
4150,-1150,4150,1.25
4200,-1108,4200,1.25
4250,-1064,4250,1.25
4300,-1014,4300,1.25
4350,-969,4350,1.25
4400,-916,4400,1.25
4450,-859,4450,1.25
4500,-809,4500,1.25
4550,-773,4550,1.25
4600,-724,4600,1.25
4650,-697,4650,1.25
4700,-677,4700,1.25
4750,-659,4750,1.25
4800,-643,4800,1.25
4850,-633,4850,1.25
4900,-606,4900,1.25
4950,-584,4950,1.25
5000,-557,5000,1.25
5050,-541,5050,1.25
5100,-520,5100,1.25
5150,-480,5150,1.25
5200,-444,5200,1.25
5250,-413,5250,1.25
5300,-376,5300,1.25
5350,-337,5350,1.25
5400,-301,5400,1.25
5450,-265,5450,1.25
5500,-238,5500,1.25
5550,-201,5550,1.25
5600,-168,5600,1.25
5650,-143,5650,1.25
5700,-120,5700,1.25
5750,-80,5750,1.25
5800,-88,5800,1.25
5850,-77,5850,1.25
5900,-54,5900,1.25
5950,-38,5950,1.25
6000,-15,6000,1.25
6050,7,6050,1.25
6100,16,6100,1.25
6150,57,6150,1.25
6200,81,6200,1.25
6250,135,6250,1.25
6300,146,6300,1.25
6350,171,6350,1.25
6400,212,6400,1.25
6450,244,6450,1.25
6500,268,6500,1.25
6550,304,6550,1.25
6600,329,6600,1.25
6650,349,6650,1.25
6700,368,6700,1.25
6750,388,6750,1.25
6800,401,6800,1.25
6850,405,6850,1.25
6900,437,6900,1.25
6950,461,6950,1.25
7000,476,7000,1.25
7050,515,7050,1.25
7100,515,7100,1.25
7150,534,7150,1.25
7200,559,7200,1.25
7250,565,7250,1.25
7300,601,7300,1.25
7350,642,7350,1.25
7400,655,7400,1.25
7450,678,7450,1.25
7500,704,7500,1.25
7550,726,7550,1.25
7600,747,7600,1.25
7650,766,7650,1.25
7700,767,7700,1.25
7750,805,7750,1.25
7800,818,7800,1.25
7850,836,7850,1.25
7900,858,7900,1.25
7950,865,7950,1.25
8000,895,8000,1.25
8050,916,8050,1.25
8100,935,8100,1.25
8150,956,8150,1.25
8200,975,8200,1.25
8250,1001,8250,1.25
8300,1018,8300,1.25
8350,1042,8350,1.25
8400,1067,8400,1.25
8450,1093,8450,1.25
8500,1113,8500,1.25
8550,1133,8550,1.25
8600,1146,8600,1.25
8650,1165,8650,1.25
8700,1193,8700,1.25
8750,1198,8750,1.25
8800,1212,8800,1.25
8850,1228,8850,1.25
8900,1252,8900,1.25
8950,1270,8950,1.25
9000,1289,9000,1.25
9050,1309,9050,1.25
9100,1307,9100,1.25
9150,1348,9150,1.25
9200,1370,9200,1.25
9250,1382,9250,1.25
9300,1405,9300,1.25
9350,1429,9350,1.25
9400,1450,9400,1.25
9450,1472,9450,1.25
9500,1489,9500,1.25
9550,1506,9550,1.25
9600,1525,9600,1.25
9650,1543,9650,1.25
9700,1559,9700,1.25
9750,1577,9750,1.25
9800,1571,9800,1.25
9850,1607,9850,1.25
9900,1620,9900,1.25
9950,1641,9950,1.25
10000,1651,10000,1.25
10050,1677,10050,1.25
100,13469,100,2.5
150,153,150,2.5
200,136,200,2.5
250,116,250,2.5
300,94,300,2.5
350,68,350,2.5
400,-144,400,2.5
450,-1287,450,2.5
500,-3741,500,2.5
550,-7294,550,2.5
600,-11436,600,2.5
650,-15620,650,2.5
700,-19382,700,2.5
750,-22373,750,2.5
800,-24395,800,2.5
850,-25336,850,2.5
900,-25215,900,2.5
950,-24097,950,2.5
1000,-22270,1000,2.5
1050,-20067,1050,2.5
1100,-17727,1100,2.5
1150,-15399,1150,2.5
1200,-13182,1200,2.5
1250,-11138,1250,2.5
1300,-9295,1300,2.5
1350,-7654,1350,2.5
1400,-6218,1400,2.5
1450,-4955,1450,2.5
1500,-3906,1500,2.5
1550,-3113,1550,2.5
1600,-2588,1600,2.5
1650,-2329,1650,2.5
1700,-2289,1700,2.5
1750,-2414,1750,2.5
1800,-2648,1800,2.5
1850,-2924,1850,2.5
1900,-3189,1900,2.5
1950,-3388,1950,2.5
2000,-3516,2000,2.5
2050,-3573,2050,2.5
2100,-3565,2100,2.5
2150,-3506,2150,2.5
2200,-3401,2200,2.5
2250,-3266,2250,2.5
2300,-3095,2300,2.5
2350,-2908,2350,2.5
2400,-2708,2400,2.5
2450,-2487,2450,2.5
2500,-2283,2500,2.5
2550,-2099,2550,2.5
2600,-1960,2600,2.5
2650,-1872,2650,2.5
2700,-1819,2700,2.5
2750,-1805,2750,2.5
2800,-1825,2800,2.5
2850,-1855,2850,2.5
2900,-1878,2900,2.5
2950,-1890,2950,2.5
3000,-1882,3000,2.5
3050,-1854,3050,2.5
3100,-1832,3100,2.5
3150,-1785,3150,2.5
3200,-1730,3200,2.5
3250,-1672,3250,2.5
3300,-1598,3300,2.5
3350,-1524,3350,2.5
3400,-1441,3400,2.5
3450,-1357,3450,2.5
3500,-1274,3500,2.5
3550,-1195,3550,2.5
3600,-1132,3600,2.5
3650,-1087,3650,2.5
3700,-1054,3700,2.5
3750,-1028,3750,2.5
3800,-1015,3800,2.5
3850,-996,3850,2.5
3900,-995,3900,2.5
3950,-975,3950,2.5
4000,-954,4000,2.5
4050,-933,4050,2.5
4100,-887,4100,2.5
4150,-852,4150,2.5
4200,-824,4200,2.5
4250,-775,4250,2.5
4300,-723,4300,2.5
4350,-685,4350,2.5
4400,-622,4400,2.5
4450,-564,4450,2.5
4500,-516,4500,2.5
4550,-479,4550,2.5
4600,-431,4600,2.5
4650,-400,4650,2.5
4700,-381,4700,2.5
4750,-362,4750,2.5
4800,-349,4800,2.5
4850,-330,4850,2.5
4900,-317,4900,2.5
4950,-308,4950,2.5
5000,-279,5000,2.5
5050,-241,5050,2.5
5100,-205,5100,2.5
5150,-182,5150,2.5
5200,-145,5200,2.5
5250,-111,5250,2.5
5300,-71,5300,2.5
5350,-40,5350,2.5
5400,-1,5400,2.5
5450,38,5450,2.5
5500,74,5500,2.5
5550,109,5550,2.5
5600,139,5600,2.5
5650,163,5650,2.5
5700,189,5700,2.5
5750,206,5750,2.5
5800,218,5800,2.5
5850,246,5850,2.5
5900,258,5900,2.5
5950,285,5950,2.5
6000,298,6000,2.5
6050,321,6050,2.5
6100,331,6100,2.5
6150,377,6150,2.5
6200,400,6200,2.5
6250,448,6250,2.5
6300,468,6300,2.5
6350,502,6350,2.5
6400,535,6400,2.5
6450,571,6450,2.5
6500,598,6500,2.5
6550,635,6550,2.5
6600,658,6600,2.5
6650,678,6650,2.5
6700,699,6700,2.5
6750,719,6750,2.5
6800,736,6800,2.5
6850,739,6850,2.5
6900,776,6900,2.5
6950,815,6950,2.5
7000,814,7000,2.5
7050,852,7050,2.5
7100,860,7100,2.5
7150,897,7150,2.5
7200,900,7200,2.5
7250,914,7250,2.5
7300,951,7300,2.5
7350,989,7350,2.5
7400,1001,7400,2.5
7450,1030,7450,2.5
7500,1053,7500,2.5
7550,1081,7550,2.5
7600,1099,7600,2.5
7650,1117,7650,2.5
7700,1131,7700,2.5
7750,1165,7750,2.5
7800,1178,7800,2.5
7850,1199,7850,2.5
7900,1217,7900,2.5
7950,1240,7950,2.5
8000,1267,8000,2.5
8050,1279,8050,2.5
8100,1306,8100,2.5
8150,1327,8150,2.5
8200,1353,8200,2.5
8250,1371,8250,2.5
8300,1401,8300,2.5
8350,1424,8350,2.5
8400,1444,8400,2.5
8450,1468,8450,2.5
8500,1491,8500,2.5
8550,1525,8550,2.5
8600,1529,8600,2.5
8650,1548,8650,2.5
8700,1563,8700,2.5
8750,1587,8750,2.5
8800,1603,8800,2.5
8850,1619,8850,2.5
8900,1639,8900,2.5
8950,1661,8950,2.5
9000,1683,9000,2.5
9050,1703,9050,2.5
9100,1738,9100,2.5
9150,1745,9150,2.5
9200,1770,9200,2.5
9250,1793,9250,2.5
9300,1812,9300,2.5
9350,1839,9350,2.5
9400,1850,9400,2.5
9450,1867,9450,2.5
9500,1896,9500,2.5
9550,1916,9550,2.5
9600,1937,9600,2.5
9650,1955,9650,2.5
9700,1972,9700,2.5
9750,1990,9750,2.5
9800,2009,9800,2.5
9850,2025,9850,2.5
9900,2045,9900,2.5
9950,2063,9950,2.5
10000,2067,10000,2.5
10050,2104,10050,2.5
100,12151,100,5.0
150,153,150,5.0
200,136,200,5.0
250,116,250,5.0
300,94,300,5.0
350,69,350,5.0
400,-76,400,5.0
450,-1111,450,5.0
500,-3468,500,5.0
550,-6947,550,5.0
600,-11043,600,5.0
650,-15205,650,5.0
700,-18959,700,5.0
750,-21960,750,5.0
800,-24001,800,5.0
850,-24971,850,5.0
900,-24874,900,5.0
950,-23766,950,5.0
1000,-21948,1000,5.0
1050,-19748,1050,5.0
1100,-17404,1100,5.0
1150,-15067,1150,5.0
1200,-12853,1200,5.0
1250,-10805,1250,5.0
1300,-8966,1300,5.0
1350,-7328,1350,5.0
1400,-5897,1400,5.0
1450,-4643,1450,5.0
1500,-3595,1500,5.0
1550,-2806,1550,5.0
1600,-2282,1600,5.0
1650,-2021,1650,5.0
1700,-1979,1700,5.0
1750,-2109,1750,5.0
1800,-2333,1800,5.0
1850,-2613,1850,5.0
1900,-2880,1900,5.0
1950,-3073,1950,5.0
2000,-3209,2000,5.0
2050,-3266,2050,5.0
2100,-3261,2100,5.0
2150,-3198,2150,5.0
2200,-3091,2200,5.0
2250,-2961,2250,5.0
2300,-2788,2300,5.0
2350,-2603,2350,5.0
2400,-2396,2400,5.0
2450,-2180,2450,5.0
2500,-1973,2500,5.0
2550,-1786,2550,5.0
2600,-1647,2600,5.0
2650,-1557,2650,5.0
2700,-1504,2700,5.0
2750,-1497,2750,5.0
2800,-1504,2800,5.0
2850,-1530,2850,5.0
2900,-1560,2900,5.0
2950,-1563,2950,5.0
3000,-1559,3000,5.0
3050,-1541,3050,5.0
3100,-1503,3100,5.0
3150,-1454,3150,5.0
3200,-1398,3200,5.0
3250,-1328,3250,5.0
3300,-1267,3300,5.0
3350,-1187,3350,5.0
3400,-1109,3400,5.0
3450,-1006,3450,5.0
3500,-931,3500,5.0
3550,-854,3550,5.0
3600,-795,3600,5.0
3650,-747,3650,5.0
3700,-711,3700,5.0
3750,-683,3750,5.0
3800,-673,3800,5.0
3850,-669,3850,5.0
3900,-655,3900,5.0
3950,-636,3950,5.0
4000,-620,4000,5.0
4050,-579,4050,5.0
4100,-555,4100,5.0
4150,-505,4150,5.0
4200,-459,4200,5.0
4250,-417,4250,5.0
4300,-365,4300,5.0
4350,-301,4350,5.0
4400,-259,4400,5.0
4450,-205,4450,5.0
4500,-149,4500,5.0
4550,-95,4550,5.0
4600,-61,4600,5.0
4650,-32,4650,5.0
4700,-6,4700,5.0
4750,13,4750,5.0
4800,29,4800,5.0
4850,44,4850,5.0
4900,67,4900,5.0
4950,99,4950,5.0
5000,124,5000,5.0
5050,149,5050,5.0
5100,170,5100,5.0
5150,208,5150,5.0
5200,249,5200,5.0
5250,285,5250,5.0
5300,326,5300,5.0
5350,360,5350,5.0
5400,405,5400,5.0
5450,445,5450,5.0
5500,496,5500,5.0
5550,522,5550,5.0
5600,552,5600,5.0
5650,575,5650,5.0
5700,603,5700,5.0
5750,611,5750,5.0
5800,644,5800,5.0
5850,668,5850,5.0
5900,680,5900,5.0
5950,711,5950,5.0
6000,724,6000,5.0
6050,745,6050,5.0
6100,775,6100,5.0
6150,799,6150,5.0
6200,831,6200,5.0
6250,889,6250,5.0
6300,899,6300,5.0
6350,932,6350,5.0
6400,971,6400,5.0
6450,1003,6450,5.0
6500,1032,6500,5.0
6550,1073,6550,5.0
6600,1100,6600,5.0
6650,1126,6650,5.0
6700,1144,6700,5.0
6750,1169,6750,5.0
6800,1185,6800,5.0
6850,1189,6850,5.0
6900,1221,6900,5.0
6950,1280,6950,5.0
7000,1272,7000,5.0
7050,1305,7050,5.0
7100,1321,7100,5.0
7150,1369,7150,5.0
7200,1362,7200,5.0
7250,1391,7250,5.0
7300,1418,7300,5.0
7350,1443,7350,5.0
7400,1470,7400,5.0
7450,1498,7450,5.0
7500,1525,7500,5.0
7550,1551,7550,5.0
7600,1570,7600,5.0
7650,1595,7650,5.0
7700,1632,7700,5.0
7750,1642,7750,5.0
7800,1655,7800,5.0
7850,1675,7850,5.0
7900,1691,7900,5.0
7950,1725,7950,5.0
8000,1740,8000,5.0
8050,1766,8050,5.0
8100,1788,8100,5.0
8150,1814,8150,5.0
8200,1814,8200,5.0
8250,1861,8250,5.0
8300,1889,8300,5.0
8350,1913,8350,5.0
8400,1941,8400,5.0
8450,1964,8450,5.0
8500,1987,8500,5.0
8550,1997,8550,5.0
8600,2024,8600,5.0
8650,2048,8650,5.0
8700,2063,8700,5.0
8750,2086,8750,5.0
8800,2105,8800,5.0
8850,2135,8850,5.0
8900,2147,8900,5.0
8950,2167,8950,5.0
9000,2190,9000,5.0
9050,2213,9050,5.0
9100,2217,9100,5.0
9150,2255,9150,5.0
9200,2281,9200,5.0
9250,2297,9250,5.0
9300,2324,9300,5.0
9350,2361,9350,5.0
9400,2371,9400,5.0
9450,2395,9450,5.0
9500,2415,9500,5.0
9550,2438,9550,5.0
9600,2457,9600,5.0
9650,2477,9650,5.0
9700,2493,9700,5.0
9750,2514,9750,5.0
9800,2529,9800,5.0
9850,2553,9850,5.0
9900,2562,9900,5.0
9950,2590,9950,5.0
10000,2621,10000,5.0
10050,2632,10050,5.0
100,11777,100,10.0
150,153,150,10.0
200,136,200,10.0
250,116,250,10.0
300,94,300,10.0
350,69,350,10.0
400,-48,400,10.0
450,-1014,450,10.0
500,-3299,500,10.0
550,-6717,550,10.0
600,-10778,600,10.0
650,-14917,650,10.0
700,-18667,700,10.0
750,-21672,750,10.0
800,-23720,800,10.0
850,-24696,850,10.0
900,-24604,900,10.0
950,-23527,950,10.0
1000,-21712,1000,10.0
1050,-19505,1050,10.0
1100,-17147,1100,10.0
1150,-14801,1150,10.0
1200,-12587,1200,10.0
1250,-10534,1250,10.0
1300,-8699,1300,10.0
1350,-7064,1350,10.0
1400,-5629,1400,10.0
1450,-4384,1450,10.0
1500,-3331,1500,10.0
1550,-2532,1550,10.0
1600,-2008,1600,10.0
1650,-1748,1650,10.0
1700,-1699,1700,10.0
1750,-1824,1750,10.0
1800,-2058,1800,10.0
1850,-2332,1850,10.0
1900,-2594,1900,10.0
1950,-2808,1950,10.0
2000,-2926,2000,10.0
2050,-2985,2050,10.0
2100,-2977,2100,10.0
2150,-2908,2150,10.0
2200,-2808,2200,10.0
2250,-2670,2250,10.0
2300,-2495,2300,10.0
2350,-2302,2350,10.0
2400,-2105,2400,10.0
2450,-1882,2450,10.0
2500,-1670,2500,10.0
2550,-1499,2550,10.0
2600,-1347,2600,10.0
2650,-1255,2650,10.0
2700,-1201,2700,10.0
2750,-1184,2750,10.0
2800,-1202,2800,10.0
2850,-1236,2850,10.0
2900,-1248,2900,10.0
2950,-1259,2950,10.0
3000,-1254,3000,10.0
3050,-1236,3050,10.0
3100,-1194,3100,10.0
3150,-1149,3150,10.0
3200,-1090,3200,10.0
3250,-1022,3250,10.0
3300,-951,3300,10.0
3350,-874,3350,10.0
3400,-796,3400,10.0
3450,-683,3450,10.0
3500,-610,3500,10.0
3550,-536,3550,10.0
3600,-479,3600,10.0
3650,-422,3650,10.0
3700,-391,3700,10.0
3750,-361,3750,10.0
3800,-352,3800,10.0
3850,-349,3850,10.0
3900,-326,3900,10.0
3950,-311,3950,10.0
4000,-298,4000,10.0
4050,-254,4050,10.0
4100,-236,4100,10.0
4150,-180,4150,10.0
4200,-125,4200,10.0
4250,-90,4250,10.0
4300,-38,4300,10.0
4350,11,4350,10.0
4400,71,4400,10.0
4450,128,4450,10.0
4500,179,4500,10.0
4550,234,4550,10.0
4600,268,4600,10.0
4650,302,4650,10.0
4700,329,4700,10.0
4750,348,4750,10.0
4800,364,4800,10.0
4850,382,4850,10.0
4900,410,4900,10.0
4950,428,4950,10.0
5000,453,5000,10.0
5050,491,5050,10.0
5100,527,5100,10.0
5150,545,5150,10.0
5200,589,5200,10.0
5250,627,5250,10.0
5300,663,5300,10.0
5350,704,5350,10.0
5400,743,5400,10.0
5450,788,5450,10.0
5500,811,5500,10.0
5550,855,5550,10.0
5600,893,5600,10.0
5650,912,5650,10.0
5700,940,5700,10.0
5750,990,5750,10.0
5800,977,5800,10.0
5850,1006,5850,10.0
5900,1023,5900,10.0
5950,1030,5950,10.0
6000,1066,6000,10.0
6050,1091,6050,10.0
6100,1112,6100,10.0
6150,1147,6150,10.0
6200,1177,6200,10.0
6250,1197,6250,10.0
6300,1249,6300,10.0
6350,1275,6350,10.0
6400,1319,6400,10.0
6450,1356,6450,10.0
6500,1394,6500,10.0
6550,1422,6550,10.0
6600,1448,6600,10.0
6650,1467,6650,10.0
6700,1496,6700,10.0
6750,1511,6750,10.0
6800,1535,6800,10.0
6850,1561,6850,10.0
6900,1573,6900,10.0
6950,1583,6950,10.0
7000,1616,7000,10.0
7050,1641,7050,10.0
7100,1663,7100,10.0
7150,1679,7150,10.0
7200,1711,7200,10.0
7250,1732,7250,10.0
7300,1774,7300,10.0
7350,1797,7350,10.0
7400,1819,7400,10.0
7450,1845,7450,10.0
7500,1874,7500,10.0
7550,1903,7550,10.0
7600,1923,7600,10.0
7650,1945,7650,10.0
7700,1955,7700,10.0
7750,1985,7750,10.0
7800,2004,7800,10.0
7850,2022,7850,10.0
7900,2040,7900,10.0
7950,2064,7950,10.0
8000,2087,8000,10.0
8050,2112,8050,10.0
8100,2140,8100,10.0
8150,2159,8150,10.0
8200,2205,8200,10.0
8250,2211,8250,10.0
8300,2239,8300,10.0
8350,2260,8350,10.0
8400,2286,8400,10.0
8450,2314,8450,10.0
8500,2339,8500,10.0
8550,2357,8550,10.0
8600,2381,8600,10.0
8650,2398,8650,10.0
8700,2405,8700,10.0
8750,2443,8750,10.0
8800,2463,8800,10.0
8850,2476,8850,10.0
8900,2497,8900,10.0
8950,2520,8950,10.0
9000,2546,9000,10.0
9050,2568,9050,10.0
9100,2606,9100,10.0
9150,2614,9150,10.0
9200,2633,9200,10.0
9250,2661,9250,10.0
9300,2680,9300,10.0
9350,2698,9350,10.0
9400,2723,9400,10.0
9450,2745,9450,10.0
9500,2768,9500,10.0
9550,2792,9550,10.0
9600,2814,9600,10.0
9650,2835,9650,10.0
9700,2850,9700,10.0
9750,2875,9750,10.0
9800,2889,9800,10.0
9850,2906,9850,10.0
9900,2928,9900,10.0
9950,2946,9950,10.0
10000,2961,10000,10.0
10050,2987,10050,10.0
