#, session_id, temperature, start_freq, increment, num_increments, num_avg, v_range, pga_gain, gain_factor
#small_nh4no3_4,20.9,10000,300,300,4,1,1,1.01432854305411e-08
freq, real, imaginary, concentration
10000,1423,10000,0.75
10300,1521,10300,0.75
10600,1634,10600,0.75
10900,1721,10900,0.75
11200,1811,11200,0.75
11500,1909,11500,0.75
11800,1999,11800,0.75
12100,2093,12100,0.75
12400,2186,12400,0.75
12700,2277,12700,0.75
13000,2367,13000,0.75
13300,2460,13300,0.75
13600,2550,13600,0.75
13900,2641,13900,0.75
14200,2726,14200,0.75
14500,2822,14500,0.75
14800,2900,14800,0.75
15100,2985,15100,0.75
15400,3072,15400,0.75
15700,3156,15700,0.75
16000,3238,16000,0.75
16300,3332,16300,0.75
16600,3411,16600,0.75
16900,3496,16900,0.75
17200,3581,17200,0.75
17500,3663,17500,0.75
17800,3744,17800,0.75
18100,3832,18100,0.75
18400,3920,18400,0.75
18700,3996,18700,0.75
19000,4075,19000,0.75
19300,4155,19300,0.75
19600,4241,19600,0.75
19900,4321,19900,0.75
20200,4400,20200,0.75
20500,4480,20500,0.75
20800,4550,20800,0.75
21100,4640,21100,0.75
21400,4726,21400,0.75
21700,4803,21700,0.75
22000,4882,22000,0.75
22300,4961,22300,0.75
22600,5045,22600,0.75
22900,5117,22900,0.75
23200,5197,23200,0.75
23500,5276,23500,0.75
23800,5368,23800,0.75
24100,5448,24100,0.75
24400,5516,24400,0.75
24700,5591,24700,0.75
25000,5777,25000,0.75
25300,5743,25300,0.75
25600,5819,25600,0.75
25900,5899,25900,0.75
26200,5974,26200,0.75
26500,6054,26500,0.75
26800,6127,26800,0.75
27100,6197,27100,0.75
27400,6276,27400,0.75
27700,6358,27700,0.75
28000,6430,28000,0.75
28300,6521,28300,0.75
28600,6585,28600,0.75
28900,6662,28900,0.75
29200,6732,29200,0.75
29500,6806,29500,0.75
29800,6888,29800,0.75
30100,6962,30100,0.75
30400,7037,30400,0.75
30700,7111,30700,0.75
31000,7182,31000,0.75
31300,7245,31300,0.75
31600,7332,31600,0.75
31900,7409,31900,0.75
32200,7481,32200,0.75
32500,7554,32500,0.75
32800,7632,32800,0.75
33100,7701,33100,0.75
33400,7775,33400,0.75
33700,7849,33700,0.75
34000,7926,34000,0.75
34300,8000,34300,0.75
34600,8072,34600,0.75
34900,8142,34900,0.75
35200,8214,35200,0.75
35500,8294,35500,0.75
35800,8368,35800,0.75
36100,8436,36100,0.75
36400,8506,36400,0.75
36700,8572,36700,0.75
37000,8647,37000,0.75
37300,8719,37300,0.75
37600,8790,37600,0.75
37900,8867,37900,0.75
38200,8937,38200,0.75
38500,9055,38500,0.75
38800,9079,38800,0.75
39100,9150,39100,0.75
39400,9218,39400,0.75
39700,9289,39700,0.75
40000,9325,40000,0.75
40300,9432,40300,0.75
40600,9506,40600,0.75
40900,9575,40900,0.75
41200,9646,41200,0.75
41500,9714,41500,0.75
41800,9786,41800,0.75
42100,9857,42100,0.75
42400,9922,42400,0.75
42700,9989,42700,0.75
43000,10061,43000,0.75
43300,10131,43300,0.75
43600,10205,43600,0.75
43900,10270,43900,0.75
44200,10345,44200,0.75
44500,10406,44500,0.75
44800,10479,44800,0.75
45100,10545,45100,0.75
45400,10522,45400,0.75
45700,10683,45700,0.75
46000,10750,46000,0.75
46300,10817,46300,0.75
46600,10882,46600,0.75
46900,10954,46900,0.75
47200,11018,47200,0.75
47500,11088,47500,0.75
47800,11149,47800,0.75
48100,11219,48100,0.75
48400,11274,48400,0.75
48700,11353,48700,0.75
49000,11421,49000,0.75
49300,11486,49300,0.75
49600,11555,49600,0.75
49900,11616,49900,0.75
50200,11685,50200,0.75
50500,11758,50500,0.75
50800,11816,50800,0.75
51100,11886,51100,0.75
51400,11944,51400,0.75
51700,12009,51700,0.75
52000,12075,52000,0.75
52300,12142,52300,0.75
52600,12171,52600,0.75
52900,12273,52900,0.75
53200,12338,53200,0.75
53500,12402,53500,0.75
53800,12466,53800,0.75
54100,12529,54100,0.75
54400,12592,54400,0.75
54700,12657,54700,0.75
55000,12727,55000,0.75
55300,12784,55300,0.75
55600,12698,55600,0.75
55900,12910,55900,0.75
56200,12980,56200,0.75
56500,13042,56500,0.75
56800,13104,56800,0.75
57100,13165,57100,0.75
57400,13226,57400,0.75
57700,13294,57700,0.75
58000,13353,58000,0.75
58300,13412,58300,0.75
58600,13474,58600,0.75
58900,13530,58900,0.75
59200,13599,59200,0.75
59500,13658,59500,0.75
59800,13722,59800,0.75
60100,13784,60100,0.75
60400,13847,60400,0.75
60700,13907,60700,0.75
61000,13966,61000,0.75
61300,14029,61300,0.75
61600,14087,61600,0.75
61900,14148,61900,0.75
62200,14207,62200,0.75
62500,14432,62500,0.75
62800,14327,62800,0.75
63100,14390,63100,0.75
63400,14447,63400,0.75
63700,14506,63700,0.75
64000,14571,64000,0.75
64300,14626,64300,0.75
64600,14684,64600,0.75
64900,14746,64900,0.75
65200,14807,65200,0.75
65500,14860,65500,0.75
65800,14919,65800,0.75
66100,14976,66100,0.75
66400,15035,66400,0.75
66700,15107,66700,0.75
67000,15151,67000,0.75
67300,15207,67300,0.75
67600,15265,67600,0.75
67900,15318,67900,0.75
68200,15384,68200,0.75
68500,15427,68500,0.75
68800,15492,68800,0.75
69100,15548,69100,0.75
69400,15599,69400,0.75
69700,15654,69700,0.75
70000,15703,70000,0.75
70300,15765,70300,0.75
70600,15823,70600,0.75
70900,15875,70900,0.75
71200,15924,71200,0.75
71500,15919,71500,0.75
71800,16034,71800,0.75
72100,16088,72100,0.75
72400,16142,72400,0.75
72700,16193,72700,0.75
73000,16242,73000,0.75
73300,16297,73300,0.75
73600,16347,73600,0.75
73900,16401,73900,0.75
74200,16451,74200,0.75
74500,16501,74500,0.75
74800,16554,74800,0.75
75100,16604,75100,0.75
75400,16653,75400,0.75
75700,16704,75700,0.75
76000,16751,76000,0.75
76300,16801,76300,0.75
76600,16850,76600,0.75
76900,16858,76900,0.75
77200,16944,77200,0.75
77500,16992,77500,0.75
77800,17039,77800,0.75
78100,17089,78100,0.75
78400,17133,78400,0.75
78700,17178,78700,0.75
79000,17224,79000,0.75
79300,17270,79300,0.75
79600,17317,79600,0.75
79900,17361,79900,0.75
80200,17406,80200,0.75
80500,17449,80500,0.75
80800,17497,80800,0.75
81100,17526,81100,0.75
81400,17578,81400,0.75
81700,17623,81700,0.75
82000,17666,82000,0.75
82300,17708,82300,0.75
82600,17749,82600,0.75
82900,17791,82900,0.75
83200,17872,83200,0.75
83500,17870,83500,0.75
83800,17908,83800,0.75
84100,17950,84100,0.75
84400,17990,84400,0.75
84700,18028,84700,0.75
85000,18068,85000,0.75
85300,18104,85300,0.75
85600,18142,85600,0.75
85900,18181,85900,0.75
86200,18218,86200,0.75
86500,18256,86500,0.75
86800,18287,86800,0.75
87100,18328,87100,0.75
87400,18364,87400,0.75
87700,18400,87700,0.75
88000,18437,88000,0.75
88300,18468,88300,0.75
88600,18500,88600,0.75
88900,18527,88900,0.75
89200,18568,89200,0.75
89500,18601,89500,0.75
89800,18631,89800,0.75
90100,18663,90100,0.75
90400,18694,90400,0.75
90700,18726,90700,0.75
91000,18773,91000,0.75
91300,18789,91300,0.75
91600,18822,91600,0.75
91900,18849,91900,0.75
92200,18876,92200,0.75
92500,18908,92500,0.75
92800,18935,92800,0.75
93100,18962,93100,0.75
93400,18989,93400,0.75
93700,19016,93700,0.75
94000,19043,94000,0.75
94300,19067,94300,0.75
94600,19100,94600,0.75
94900,19122,94900,0.75
95200,19153,95200,0.75
95500,19170,95500,0.75
95800,19195,95800,0.75
96100,19228,96100,0.75
96400,19246,96400,0.75
96700,19265,96700,0.75
97000,19288,97000,0.75
97300,19311,97300,0.75
97600,19332,97600,0.75
97900,19353,97900,0.75
98200,19373,98200,0.75
98500,19394,98500,0.75
98800,19416,98800,0.75
99100,19437,99100,0.75
99400,19456,99400,0.75
99700,19474,99700,0.75
10000,1787,10000,1.5
10300,1908,10300,1.5
10600,2021,10600,1.5
10900,2117,10900,1.5
11200,2216,11200,1.5
11500,2325,11500,1.5
11800,2421,11800,1.5
12100,2522,12100,1.5
12400,2624,12400,1.5
12700,2720,12700,1.5
13000,2821,13000,1.5
13300,2924,13300,1.5
13600,3024,13600,1.5
13900,3122,13900,1.5
14200,3214,14200,1.5
14500,3321,14500,1.5
14800,3406,14800,1.5
15100,3500,15100,1.5
15400,3597,15400,1.5
15700,3687,15700,1.5
16000,3782,16000,1.5
16300,3882,16300,1.5
16600,3967,16600,1.5
16900,4067,16900,1.5
17200,4156,17200,1.5
17500,4249,17500,1.5
17800,4340,17800,1.5
18100,4435,18100,1.5
18400,4530,18400,1.5
18700,4621,18700,1.5
19000,4708,19000,1.5
19300,4795,19300,1.5
19600,4897,19600,1.5
19900,4974,19900,1.5
20200,5075,20200,1.5
20500,5155,20500,1.5
20800,5249,20800,1.5
21100,5337,21100,1.5
21400,5425,21400,1.5
21700,5518,21700,1.5
22000,5603,22000,1.5
22300,5694,22300,1.5
22600,5775,22600,1.5
22900,5869,22900,1.5
23200,5959,23200,1.5
23500,6043,23500,1.5
23800,6157,23800,1.5
24100,6243,24100,1.5
24400,6314,24400,1.5
24700,6398,24700,1.5
25000,6619,25000,1.5
25300,6576,25300,1.5
25600,6662,25600,1.5
25900,6749,25900,1.5
26200,6836,26200,1.5
26500,6926,26500,1.5
26800,7010,26800,1.5
27100,7099,27100,1.5
27400,7184,27400,1.5
27700,7274,27700,1.5
28000,7361,28000,1.5
28300,7431,28300,1.5
28600,7533,28600,1.5
28900,7614,28900,1.5
29200,7703,29200,1.5
29500,7788,29500,1.5
29800,7874,29800,1.5
30100,7964,30100,1.5
30400,8050,30400,1.5
30700,8133,30700,1.5
31000,8217,31000,1.5
31300,8293,31300,1.5
31600,8387,31600,1.5
31900,8470,31900,1.5
32200,8557,32200,1.5
32500,8641,32500,1.5
32800,8726,32800,1.5
33100,8811,33100,1.5
33400,8893,33400,1.5
33700,8981,33700,1.5
34000,9066,34000,1.5
34300,9147,34300,1.5
34600,9226,34600,1.5
34900,9316,34900,1.5
35200,9394,35200,1.5
35500,9477,35500,1.5
35800,9558,35800,1.5
36100,9643,36100,1.5
36400,9726,36400,1.5
36700,9805,36700,1.5
37000,9897,37000,1.5
37300,9970,37300,1.5
37600,10051,37600,1.5
37900,10135,37900,1.5
38200,10215,38200,1.5
38500,10360,38500,1.5
38800,10375,38800,1.5
39100,10457,39100,1.5
39400,10535,39400,1.5
39700,10616,39700,1.5
40000,10646,40000,1.5
40300,10775,40300,1.5
40600,10858,40600,1.5
40900,10936,40900,1.5
41200,11013,41200,1.5
41500,11092,41500,1.5
41800,11174,41800,1.5
42100,11249,42100,1.5
42400,11326,42400,1.5
42700,11403,42700,1.5
43000,11480,43000,1.5
43300,11558,43300,1.5
43600,11638,43600,1.5
43900,11718,43900,1.5
44200,11801,44200,1.5
44500,11863,44500,1.5
44800,11937,44800,1.5
45100,12015,45100,1.5
45400,12178,45400,1.5
45700,12171,45700,1.5
46000,12244,46000,1.5
46300,12306,46300,1.5
46600,12386,46600,1.5
46900,12463,46900,1.5
47200,12536,47200,1.5
47500,12609,47500,1.5
47800,12680,47800,1.5
48100,12753,48100,1.5
48400,12840,48400,1.5
48700,12897,48700,1.5
49000,12974,49000,1.5
49300,13046,49300,1.5
49600,13116,49600,1.5
49900,13190,49900,1.5
50200,13257,50200,1.5
50500,13334,50500,1.5
50800,13396,50800,1.5
51100,13466,51100,1.5
51400,13537,51400,1.5
51700,13609,51700,1.5
52000,13678,52000,1.5
52300,13745,52300,1.5
52600,13817,52600,1.5
52900,13881,52900,1.5
53200,13951,53200,1.5
53500,14017,53500,1.5
53800,14084,53800,1.5
54100,14150,54100,1.5
54400,14215,54400,1.5
54700,14281,54700,1.5
55000,14346,55000,1.5
55300,14411,55300,1.5
55600,14663,55600,1.5
55900,14544,55900,1.5
56200,14609,56200,1.5
56500,14669,56500,1.5
56800,14736,56800,1.5
57100,14802,57100,1.5
57400,14863,57400,1.5
57700,14941,57700,1.5
58000,14990,58000,1.5
58300,15049,58300,1.5
58600,15111,58600,1.5
58900,15183,58900,1.5
59200,15235,59200,1.5
59500,15295,59500,1.5
59800,15358,59800,1.5
60100,15421,60100,1.5
60400,15477,60400,1.5
60700,15536,60700,1.5
61000,15599,61000,1.5
61300,15657,61300,1.5
61600,15716,61600,1.5
61900,15772,61900,1.5
62200,15828,62200,1.5
62500,15558,62500,1.5
62800,15944,62800,1.5
63100,15998,63100,1.5
63400,16057,63400,1.5
63700,16113,63700,1.5
64000,16167,64000,1.5
64300,16225,64300,1.5
64600,16280,64600,1.5
64900,16333,64900,1.5
65200,16379,65200,1.5
65500,16441,65500,1.5
65800,16489,65800,1.5
66100,16547,66100,1.5
66400,16596,66400,1.5
66700,16603,66700,1.5
67000,16706,67000,1.5
67300,16757,67300,1.5
67600,16808,67600,1.5
67900,16858,67900,1.5
68200,16914,68200,1.5
68500,16961,68500,1.5
68800,17009,68800,1.5
69100,17056,69100,1.5
69400,17107,69400,1.5
69700,17156,69700,1.5
70000,17197,70000,1.5
70300,17252,70300,1.5
70600,17298,70600,1.5
70900,17345,70900,1.5
71200,17395,71200,1.5
71500,17623,71500,1.5
71800,17483,71800,1.5
72100,17530,72100,1.5
72400,17575,72400,1.5
72700,17619,72700,1.5
73000,17660,73000,1.5
73300,17707,73300,1.5
73600,17751,73600,1.5
73900,17793,73900,1.5
74200,17836,74200,1.5
74500,17875,74500,1.5
74800,17920,74800,1.5
75100,17961,75100,1.5
75400,18005,75400,1.5
75700,18041,75700,1.5
76000,18082,76000,1.5
76300,18122,76300,1.5
76600,18163,76600,1.5
76900,18229,76900,1.5
77200,18240,77200,1.5
77500,18277,77500,1.5
77800,18315,77800,1.5
78100,18354,78100,1.5
78400,18388,78400,1.5
78700,18425,78700,1.5
79000,18459,79000,1.5
79300,18496,79300,1.5
79600,18537,79600,1.5
79900,18568,79900,1.5
80200,18603,80200,1.5
80500,18636,80500,1.5
80800,18666,80800,1.5
81100,18699,81100,1.5
81400,18739,81400,1.5
81700,18769,81700,1.5
82000,18801,82000,1.5
82300,18832,82300,1.5
82600,18863,82600,1.5
82900,18896,82900,1.5
83200,18903,83200,1.5
83500,18954,83500,1.5
83800,18982,83800,1.5
84100,19013,84100,1.5
84400,19041,84400,1.5
84700,19069,84700,1.5
85000,19095,85000,1.5
85300,19123,85300,1.5
85600,19151,85600,1.5
85900,19177,85900,1.5
86200,19206,86200,1.5
86500,19226,86500,1.5
86800,19252,86800,1.5
87100,19279,87100,1.5
87400,19306,87400,1.5
87700,19329,87700,1.5
88000,19349,88000,1.5
88300,19374,88300,1.5
88600,19396,88600,1.5
88900,19422,88900,1.5
89200,19441,89200,1.5
89500,19460,89500,1.5
89800,19481,89800,1.5
90100,19500,90100,1.5
90400,19520,90400,1.5
90700,19538,90700,1.5
91000,19566,91000,1.5
91300,19579,91300,1.5
91600,19597,91600,1.5
91900,19614,91900,1.5
92200,19632,92200,1.5
92500,19650,92500,1.5
92800,19665,92800,1.5
93100,19680,93100,1.5
93400,19697,93400,1.5
93700,19711,93700,1.5
94000,19726,94000,1.5
94300,19739,94300,1.5
94600,19753,94600,1.5
94900,19769,94900,1.5
95200,19774,95200,1.5
95500,19793,95500,1.5
95800,19805,95800,1.5
96100,19818,96100,1.5
96400,19823,96400,1.5
96700,19837,96700,1.5
97000,19850,97000,1.5
97300,19862,97300,1.5
97600,19869,97600,1.5
97900,19878,97900,1.5
98200,19884,98200,1.5
98500,19895,98500,1.5
98800,19902,98800,1.5
99100,19910,99100,1.5
99400,19918,99400,1.5
99700,19924,99700,1.5
10000,2088,10000,3.0
10300,2220,10300,3.0
10600,2346,10600,3.0
10900,2457,10900,3.0
11200,2567,11200,3.0
11500,2689,11500,3.0
11800,2796,11800,3.0
12100,2918,12100,3.0
12400,3030,12400,3.0
12700,3132,12700,3.0
13000,3242,13000,3.0
13300,3361,13300,3.0
13600,3465,13600,3.0
13900,3538,13900,3.0
14200,3687,14200,3.0
14500,3798,14500,3.0
14800,3904,14800,3.0
15100,4006,15100,3.0
15400,4109,15400,3.0
15700,4218,15700,3.0
16000,4320,16000,3.0
16300,4432,16300,3.0
16600,4531,16600,3.0
16900,4638,16900,3.0
17200,4738,17200,3.0
17500,4843,17500,3.0
17800,4939,17800,3.0
18100,5053,18100,3.0
18400,5149,18400,3.0
18700,5253,18700,3.0
19000,5345,19000,3.0
19300,5445,19300,3.0
19600,5551,19600,3.0
19900,5637,19900,3.0
20200,5752,20200,3.0
20500,5839,20500,3.0
20800,5944,20800,3.0
21100,6035,21100,3.0
21400,6136,21400,3.0
21700,6231,21700,3.0
22000,6327,22000,3.0
22300,6428,22300,3.0
22600,6519,22600,3.0
22900,6616,22900,3.0
23200,6713,23200,3.0
23500,6809,23500,3.0
23800,6877,23800,3.0
24100,7005,24100,3.0
24400,7079,24400,3.0
24700,7177,24700,3.0
25000,7185,25000,3.0
25300,7373,25300,3.0
25600,7461,25600,3.0
25900,7561,25900,3.0
26200,7656,26200,3.0
26500,7744,26500,3.0
26800,7837,26800,3.0
27100,7928,27100,3.0
27400,8024,27400,3.0
27700,8108,27700,3.0
28000,8205,28000,3.0
28300,8281,28300,3.0
28600,8383,28600,3.0
28900,8474,28900,3.0
29200,8560,29200,3.0
29500,8645,29500,3.0
29800,8732,29800,3.0
30100,8829,30100,3.0
30400,8917,30400,3.0
30700,9002,30700,3.0
31000,9088,31000,3.0
31300,9188,31300,3.0
31600,9266,31600,3.0
31900,9354,31900,3.0
32200,9435,32200,3.0
32500,9525,32500,3.0
32800,9612,32800,3.0
33100,9697,33100,3.0
33400,9782,33400,3.0
33700,9871,33700,3.0
34000,9954,34000,3.0
34300,10039,34300,3.0
34600,10120,34600,3.0
34900,10203,34900,3.0
35200,10288,35200,3.0
35500,10373,35500,3.0
35800,10463,35800,3.0
36100,10541,36100,3.0
36400,10621,36400,3.0
36700,10702,36700,3.0
37000,10783,37000,3.0
37300,10867,37300,3.0
37600,10951,37600,3.0
37900,11032,37900,3.0
38200,11113,38200,3.0
38500,11280,38500,3.0
38800,11270,38800,3.0
39100,11352,39100,3.0
39400,11430,39400,3.0
39700,11511,39700,3.0
40000,11626,40000,3.0
40300,11666,40300,3.0
40600,11748,40600,3.0
40900,11824,40900,3.0
41200,11900,41200,3.0
41500,11979,41500,3.0
41800,12060,41800,3.0
42100,12137,42100,3.0
42400,12209,42400,3.0
42700,12285,42700,3.0
43000,12365,43000,3.0
43300,12438,43300,3.0
43600,12517,43600,3.0
43900,12591,43900,3.0
44200,12647,44200,3.0
44500,12734,44500,3.0
44800,12812,44800,3.0
45100,12886,45100,3.0
45400,13019,45400,3.0
45700,13038,45700,3.0
46000,13108,46000,3.0
46300,13185,46300,3.0
46600,13249,46600,3.0
46900,13321,46900,3.0
47200,13390,47200,3.0
47500,13465,47500,3.0
47800,13530,47800,3.0
48100,13603,48100,3.0
48400,13683,48400,3.0
48700,13750,48700,3.0
49000,13817,49000,3.0
49300,13883,49300,3.0
49600,13957,49600,3.0
49900,14023,49900,3.0
50200,14089,50200,3.0
50500,14161,50500,3.0
50800,14225,50800,3.0
51100,14290,51100,3.0
51400,14358,51400,3.0
51700,14425,51700,3.0
52000,14491,52000,3.0
52300,14557,52300,3.0
52600,14633,52600,3.0
52900,14689,52900,3.0
53200,14755,53200,3.0
53500,14820,53500,3.0
53800,14883,53800,3.0
54100,14943,54100,3.0
54400,15006,54400,3.0
54700,15071,54700,3.0
55000,15127,55000,3.0
55300,15192,55300,3.0
55600,15278,55600,3.0
55900,15322,55900,3.0
56200,15380,56200,3.0
56500,15442,56500,3.0
56800,15502,56800,3.0
57100,15563,57100,3.0
57400,15622,57400,3.0
57700,15671,57700,3.0
58000,15741,58000,3.0
58300,15797,58300,3.0
58600,15860,58600,3.0
58900,15923,58900,3.0
59200,15972,59200,3.0
59500,16027,59500,3.0
59800,16086,59800,3.0
60100,16144,60100,3.0
60400,16196,60400,3.0
60700,16253,60700,3.0
61000,16310,61000,3.0
61300,16367,61300,3.0
61600,16419,61600,3.0
61900,16473,61900,3.0
62200,16524,62200,3.0
62500,16385,62500,3.0
62800,16632,62800,3.0
63100,16686,63100,3.0
63400,16738,63400,3.0
63700,16792,63700,3.0
64000,16842,64000,3.0
64300,16893,64300,3.0
64600,16944,64600,3.0
64900,16995,64900,3.0
65200,17054,65200,3.0
65500,17095,65500,3.0
65800,17144,65800,3.0
66100,17189,66100,3.0
66400,17240,66400,3.0
66700,17251,66700,3.0
67000,17336,67000,3.0
67300,17383,67300,3.0
67600,17431,67600,3.0
67900,17473,67900,3.0
68200,17516,68200,3.0
68500,17556,68500,3.0
68800,17612,68800,3.0
69100,17655,69100,3.0
69400,17703,69400,3.0
69700,17744,69700,3.0
70000,17788,70000,3.0
70300,17832,70300,3.0
70600,17878,70600,3.0
70900,17918,70900,3.0
71200,17958,71200,3.0
71500,18117,71500,3.0
71800,18042,71800,3.0
72100,18081,72100,3.0
72400,18126,72400,3.0
72700,18161,72700,3.0
73000,18206,73000,3.0
73300,18243,73300,3.0
73600,18281,73600,3.0
73900,18317,73900,3.0
74200,18356,74200,3.0
74500,18393,74500,3.0
74800,18431,74800,3.0
75100,18464,75100,3.0
75400,18504,75400,3.0
75700,18537,75700,3.0
76000,18575,76000,3.0
76300,18608,76300,3.0
76600,18643,76600,3.0
76900,18662,76900,3.0
77200,18712,77200,3.0
77500,18746,77500,3.0
77800,18778,77800,3.0
78100,18809,78100,3.0
78400,18841,78400,3.0
78700,18873,78700,3.0
79000,18904,79000,3.0
79300,18936,79300,3.0
79600,18966,79600,3.0
79900,18996,79900,3.0
80200,19024,80200,3.0
80500,19052,80500,3.0
80800,19081,80800,3.0
81100,19107,81100,3.0
81400,19146,81400,3.0
81700,19168,81700,3.0
82000,19191,82000,3.0
82300,19219,82300,3.0
82600,19245,82600,3.0
82900,19271,82900,3.0
83200,19268,83200,3.0
83500,19318,83500,3.0
83800,19343,83800,3.0
84100,19367,84100,3.0
84400,19390,84400,3.0
84700,19413,84700,3.0
85000,19438,85000,3.0
85300,19457,85300,3.0
85600,19479,85600,3.0
85900,19501,85900,3.0
86200,19533,86200,3.0
86500,19541,86500,3.0
86800,19559,86800,3.0
87100,19580,87100,3.0
87400,19600,87400,3.0
87700,19618,87700,3.0
88000,19634,88000,3.0
88300,19654,88300,3.0
88600,19671,88600,3.0
88900,19671,88900,3.0
89200,19705,89200,3.0
89500,19721,89500,3.0
89800,19737,89800,3.0
90100,19750,90100,3.0
90400,19765,90400,3.0
90700,19778,90700,3.0
91000,19792,91000,3.0
91300,19808,91300,3.0
91600,19817,91600,3.0
91900,19831,91900,3.0
92200,19844,92200,3.0
92500,19857,92500,3.0
92800,19868,92800,3.0
93100,19877,93100,3.0
93400,19887,93400,3.0
93700,19897,93700,3.0
94000,19907,94000,3.0
94300,19913,94300,3.0
94600,19925,94600,3.0
94900,19932,94900,3.0
95200,19936,95200,3.0
95500,19947,95500,3.0
95800,19953,95800,3.0
96100,19963,96100,3.0
96400,19964,96400,3.0
96700,19970,96700,3.0
97000,19977,97000,3.0
97300,19978,97300,3.0
97600,19984,97600,3.0
97900,19988,97900,3.0
98200,19990,98200,3.0
98500,19990,98500,3.0
98800,19996,98800,3.0
99100,19998,99100,3.0
