#, session_id, temperature, start_freq, increment, num_increments, num_avg, v_range, pga_gain, gain_factor
#nh4no3_2,20.0,10000,300,300,4,1,1,1.0152170736012073e-08
freq, real, imaginary, concentration
10000,326,10000,10.0
10300,368,10300,10.0
10600,404,10600,10.0
10900,422,10900,10.0
11200,446,11200,10.0
11500,475,11500,10.0
11800,498,11800,10.0
12100,523,12100,10.0
12400,551,12400,10.0
12700,571,12700,10.0
13000,598,13000,10.0
13300,628,13300,10.0
13600,653,13600,10.0
13900,673,13900,10.0
14200,701,14200,10.0
14500,729,14500,10.0
14800,749,14800,10.0
15100,773,15100,10.0
15400,799,15400,10.0
15700,820,15700,10.0
16000,844,16000,10.0
16300,871,16300,10.0
16600,892,16600,10.0
16900,916,16900,10.0
17200,941,17200,10.0
17500,963,17500,10.0
17800,984,17800,10.0
18100,1010,18100,10.0
18400,1040,18400,10.0
18700,1061,18700,10.0
19000,1076,19000,10.0
19300,1102,19300,10.0
19600,1124,19600,10.0
19900,1148,19900,10.0
20200,1172,20200,10.0
20500,1189,20500,10.0
20800,1213,20800,10.0
21100,1236,21100,10.0
21400,1260,21400,10.0
21700,1281,21700,10.0
22000,1306,22000,10.0
22300,1328,22300,10.0
22600,1349,22600,10.0
22900,1372,22900,10.0
23200,1395,23200,10.0
23500,1416,23500,10.0
23800,1437,23800,10.0
24100,1461,24100,10.0
24400,1484,24400,10.0
24700,1503,24700,10.0
25000,1531,25000,10.0
25300,1549,25300,10.0
25600,1570,25600,10.0
25900,1594,25900,10.0
26200,1619,26200,10.0
26500,1640,26500,10.0
26800,1659,26800,10.0
27100,1686,27100,10.0
27400,1703,27400,10.0
27700,1724,27700,10.0
28000,1746,28000,10.0
28300,1769,28300,10.0
28600,1792,28600,10.0
28900,1811,28900,10.0
29200,1834,29200,10.0
29500,1855,29500,10.0
29800,1878,29800,10.0
30100,1900,30100,10.0
30400,1923,30400,10.0
30700,1943,30700,10.0
31000,1963,31000,10.0
31300,1987,31300,10.0
31600,2008,31600,10.0
31900,2027,31900,10.0
32200,2049,32200,10.0
32500,2073,32500,10.0
32800,2094,32800,10.0
33100,2117,33100,10.0
33400,2136,33400,10.0
33700,2161,33700,10.0
34000,2185,34000,10.0
34300,2204,34300,10.0
34600,2224,34600,10.0
34900,2243,34900,10.0
35200,2266,35200,10.0
35500,2289,35500,10.0
35800,2312,35800,10.0
36100,2334,36100,10.0
36400,2354,36400,10.0
36700,2375,36700,10.0
37000,2397,37000,10.0
37300,2418,37300,10.0
37600,2441,37600,10.0
37900,2463,37900,10.0
38200,2485,38200,10.0
38500,2506,38500,10.0
38800,2523,38800,10.0
39100,2548,39100,10.0
39400,2568,39400,10.0
39700,2589,39700,10.0
40000,2610,40000,10.0
40300,2634,40300,10.0
40600,2658,40600,10.0
40900,2678,40900,10.0
41200,2699,41200,10.0
41500,2722,41500,10.0
41800,2747,41800,10.0
42100,2766,42100,10.0
42400,2785,42400,10.0
42700,2807,42700,10.0
43000,2832,43000,10.0
43300,2850,43300,10.0
43600,2874,43600,10.0
43900,2895,43900,10.0
44200,2918,44200,10.0
44500,2936,44500,10.0
44800,2958,44800,10.0
45100,2980,45100,10.0
45400,3001,45400,10.0
45700,3024,45700,10.0
46000,3045,46000,10.0
46300,3064,46300,10.0
46600,3087,46600,10.0
46900,3109,46900,10.0
47200,3130,47200,10.0
47500,3151,47500,10.0
47800,3172,47800,10.0
48100,3195,48100,10.0
48400,3216,48400,10.0
48700,3237,48700,10.0
49000,3260,49000,10.0
49300,3282,49300,10.0
49600,3303,49600,10.0
49900,3326,49900,10.0
50200,3345,50200,10.0
50500,3367,50500,10.0
50800,3388,50800,10.0
51100,3409,51100,10.0
51400,3431,51400,10.0
51700,3453,51700,10.0
52000,3475,52000,10.0
52300,3494,52300,10.0
52600,3517,52600,10.0
52900,3539,52900,10.0
53200,3561,53200,10.0
53500,3585,53500,10.0
53800,3605,53800,10.0
54100,3624,54100,10.0
54400,3645,54400,10.0
54700,3668,54700,10.0
55000,3690,55000,10.0
55300,3708,55300,10.0
55600,3730,55600,10.0
55900,3753,55900,10.0
56200,3780,56200,10.0
56500,3797,56500,10.0
56800,3820,56800,10.0
57100,3842,57100,10.0
57400,3863,57400,10.0
57700,3884,57700,10.0
58000,3906,58000,10.0
58300,3927,58300,10.0
58600,3949,58600,10.0
58900,3972,58900,10.0
59200,3992,59200,10.0
59500,4012,59500,10.0
59800,4034,59800,10.0
60100,4058,60100,10.0
60400,4078,60400,10.0
60700,4098,60700,10.0
61000,4122,61000,10.0
61300,4145,61300,10.0
61600,4165,61600,10.0
61900,4183,61900,10.0
62200,4205,62200,10.0
62500,4220,62500,10.0
62800,4247,62800,10.0
63100,4270,63100,10.0
63400,4290,63400,10.0
63700,4312,63700,10.0
64000,4333,64000,10.0
64300,4355,64300,10.0
64600,4375,64600,10.0
64900,4399,64900,10.0
65200,4421,65200,10.0
65500,4441,65500,10.0
65800,4461,65800,10.0
66100,4483,66100,10.0
66400,4502,66400,10.0
66700,4524,66700,10.0
67000,4549,67000,10.0
67300,4570,67300,10.0
67600,4591,67600,10.0
67900,4611,67900,10.0
68200,4634,68200,10.0
68500,4655,68500,10.0
68800,4676,68800,10.0
69100,4698,69100,10.0
69400,4719,69400,10.0
69700,4739,69700,10.0
70000,4761,70000,10.0
70300,4782,70300,10.0
70600,4805,70600,10.0
70900,4826,70900,10.0
71200,4847,71200,10.0
71500,4869,71500,10.0
71800,4888,71800,10.0
72100,4910,72100,10.0
72400,4929,72400,10.0
72700,4952,72700,10.0
73000,4973,73000,10.0
73300,4994,73300,10.0
73600,5016,73600,10.0
73900,5037,73900,10.0
74200,5058,74200,10.0
74500,5078,74500,10.0
74800,5099,74800,10.0
75100,5121,75100,10.0
75400,5142,75400,10.0
75700,5162,75700,10.0
76000,5183,76000,10.0
76300,5203,76300,10.0
76600,5225,76600,10.0
76900,5247,76900,10.0
77200,5267,77200,10.0
77500,5288,77500,10.0
77800,5308,77800,10.0
78100,5329,78100,10.0
78400,5349,78400,10.0
78700,5370,78700,10.0
79000,5388,79000,10.0
79300,5411,79300,10.0
79600,5433,79600,10.0
79900,5454,79900,10.0
80200,5473,80200,10.0
80500,5492,80500,10.0
80800,5514,80800,10.0
81100,5535,81100,10.0
81400,5558,81400,10.0
81700,5577,81700,10.0
82000,5596,82000,10.0
82300,5618,82300,10.0
82600,5638,82600,10.0
82900,5657,82900,10.0
83200,5678,83200,10.0
83500,5697,83500,10.0
83800,5718,83800,10.0
84100,5738,84100,10.0
84400,5758,84400,10.0
84700,5779,84700,10.0
85000,5799,85000,10.0
85300,5819,85300,10.0
85600,5839,85600,10.0
85900,5858,85900,10.0
86200,5878,86200,10.0
86500,5897,86500,10.0
86800,5916,86800,10.0
87100,5939,87100,10.0
87400,5960,87400,10.0
87700,5980,87700,10.0
88000,5998,88000,10.0
88300,6019,88300,10.0
88600,6040,88600,10.0
88900,6057,88900,10.0
89200,6077,89200,10.0
89500,6098,89500,10.0
89800,6117,89800,10.0
90100,6136,90100,10.0
90400,6156,90400,10.0
90700,6174,90700,10.0
91000,6196,91000,10.0
91300,6217,91300,10.0
91600,6236,91600,10.0
91900,6255,91900,10.0
92200,6276,92200,10.0
92500,6294,92500,10.0
92800,6313,92800,10.0
93100,6331,93100,10.0
93400,6352,93400,10.0
93700,6371,93700,10.0
94000,6389,94000,10.0
94300,6409,94300,10.0
94600,6426,94600,10.0
94900,6448,94900,10.0
95200,6468,95200,10.0
95500,6486,95500,10.0
95800,6505,95800,10.0
96100,6522,96100,10.0
96400,6543,96400,10.0
96700,6562,96700,10.0
97000,6581,97000,10.0
97300,6602,97300,10.0
97600,6619,97600,10.0
97900,6637,97900,10.0
98200,6656,98200,10.0
98500,6676,98500,10.0
98800,6694,98800,10.0
99100,6716,99100,10.0
99400,6731,99400,10.0
99700,6751,99700,10.0
10000,103,10000,5.0
10300,130,10300,5.0
10600,147,10600,5.0
10900,153,10900,5.0
11200,160,11200,5.0
11500,176,11500,5.0
11800,183,11800,5.0
12100,195,12100,5.0
12400,205,12400,5.0
12700,214,12700,5.0
13000,223,13000,5.0
13300,241,13300,5.0
13600,250,13600,5.0
13900,256,13900,5.0
14200,272,14200,5.0
14500,285,14500,5.0
14800,291,14800,5.0
15100,301,15100,5.0
15400,313,15400,5.0
15700,321,15700,5.0
16000,331,16000,5.0
16300,344,16300,5.0
16600,351,16600,5.0
16900,362,16900,5.0
17200,374,17200,5.0
17500,384,17500,5.0
17800,390,17800,5.0
18100,405,18100,5.0
18400,421,18400,5.0
18700,429,18700,5.0
19000,433,19000,5.0
19300,443,19300,5.0
19600,453,19600,5.0
19900,465,19900,5.0
20200,474,20200,5.0
20500,482,20500,5.0
20800,495,20800,5.0
21100,505,21100,5.0
21400,515,21400,5.0
21700,524,21700,5.0
22000,536,22000,5.0
22300,548,22300,5.0
22600,555,22600,5.0
22900,566,22900,5.0
23200,576,23200,5.0
23500,585,23500,5.0
23800,595,23800,5.0
24100,609,24100,5.0
24400,617,24400,5.0
24700,625,24700,5.0
25000,636,25000,5.0
25300,647,25300,5.0
25600,655,25600,5.0
25900,668,25900,5.0
26200,683,26200,5.0
26500,691,26500,5.0
26800,697,26800,5.0
27100,702,27100,5.0
27400,720,27400,5.0
27700,729,27700,5.0
28000,738,28000,5.0
28300,751,28300,5.0
28600,761,28600,5.0
28900,771,28900,5.0
29200,782,29200,5.0
29500,792,29500,5.0
29800,803,29800,5.0
30100,815,30100,5.0
30400,825,30400,5.0
30700,833,30700,5.0
31000,844,31000,5.0
31300,856,31300,5.0
31600,866,31600,5.0
31900,877,31900,5.0
32200,886,32200,5.0
32500,898,32500,5.0
32800,909,32800,5.0
33100,920,33100,5.0
33400,927,33400,5.0
33700,942,33700,5.0
34000,956,34000,5.0
34300,964,34300,5.0
34600,972,34600,5.0
34900,982,34900,5.0
35200,995,35200,5.0
35500,1005,35500,5.0
35800,1017,35800,5.0
36100,1029,36100,5.0
36400,1038,36400,5.0
36700,1049,36700,5.0
37000,1060,37000,5.0
37300,1073,37300,5.0
37600,1082,37600,5.0
37900,1094,37900,5.0
38200,1106,38200,5.0
38500,1116,38500,5.0
38800,1127,38800,5.0
39100,1138,39100,5.0
39400,1149,39400,5.0
39700,1158,39700,5.0
40000,1161,40000,5.0
40300,1184,40300,5.0
40600,1193,40600,5.0
40900,1205,40900,5.0
41200,1217,41200,5.0
41500,1230,41500,5.0
41800,1243,41800,5.0
42100,1252,42100,5.0
42400,1262,42400,5.0
42700,1273,42700,5.0
43000,1288,43000,5.0
43300,1296,43300,5.0
43600,1310,43600,5.0
43900,1322,43900,5.0
44200,1335,44200,5.0
44500,1342,44500,5.0
44800,1355,44800,5.0
45100,1365,45100,5.0
45400,1378,45400,5.0
45700,1392,45700,5.0
46000,1402,46000,5.0
46300,1412,46300,5.0
46600,1423,46600,5.0
46900,1436,46900,5.0
47200,1449,47200,5.0
47500,1460,47500,5.0
47800,1471,47800,5.0
48100,1484,48100,5.0
48400,1496,48400,5.0
48700,1506,48700,5.0
49000,1520,49000,5.0
49300,1530,49300,5.0
49600,1544,49600,5.0
49900,1556,49900,5.0
50200,1567,50200,5.0
50500,1579,50500,5.0
50800,1592,50800,5.0
51100,1604,51100,5.0
51400,1615,51400,5.0
51700,1627,51700,5.0
52000,1640,52000,5.0
52300,1652,52300,5.0
52600,1663,52600,5.0
52900,1676,52900,5.0
53200,1688,53200,5.0
53500,1702,53500,5.0
53800,1714,53800,5.0
54100,1724,54100,5.0
54400,1736,54400,5.0
54700,1750,54700,5.0
55000,1760,55000,5.0
55300,1772,55300,5.0
55600,1784,55600,5.0
55900,1798,55900,5.0
56200,1814,56200,5.0
56500,1823,56500,5.0
56800,1836,56800,5.0
57100,1848,57100,5.0
57400,1860,57400,5.0
57700,1873,57700,5.0
58000,1886,58000,5.0
58300,1898,58300,5.0
58600,1911,58600,5.0
58900,1924,58900,5.0
59200,1935,59200,5.0
59500,1947,59500,5.0
59800,1961,59800,5.0
60100,1975,60100,5.0
60400,1988,60400,5.0
60700,1999,60700,5.0
61000,2013,61000,5.0
61300,2026,61300,5.0
61600,2038,61600,5.0
61900,2049,61900,5.0
62200,2060,62200,5.0
62500,2074,62500,5.0
62800,2088,62800,5.0
63100,2100,63100,5.0
63400,2113,63400,5.0
63700,2126,63700,5.0
64000,2139,64000,5.0
64300,2151,64300,5.0
64600,2164,64600,5.0
64900,2178,64900,5.0
65200,2192,65200,5.0
65500,2203,65500,5.0
65800,2216,65800,5.0
66100,2229,66100,5.0
66400,2241,66400,5.0
66700,2252,66700,5.0
67000,2268,67000,5.0
67300,2282,67300,5.0
67600,2293,67600,5.0
67900,2305,67900,5.0
68200,2319,68200,5.0
68500,2332,68500,5.0
68800,2345,68800,5.0
69100,2359,69100,5.0
69400,2372,69400,5.0
69700,2386,69700,5.0
70000,2398,70000,5.0
70300,2410,70300,5.0
70600,2424,70600,5.0
70900,2435,70900,5.0
71200,2449,71200,5.0
71500,2466,71500,5.0
71800,2478,71800,5.0
72100,2491,72100,5.0
72400,2500,72400,5.0
72700,2517,72700,5.0
73000,2530,73000,5.0
73300,2544,73300,5.0
73600,2557,73600,5.0
73900,2570,73900,5.0
74200,2583,74200,5.0
74500,2598,74500,5.0
74800,2611,74800,5.0
75100,2622,75100,5.0
75400,2636,75400,5.0
75700,2650,75700,5.0
76000,2663,76000,5.0
76300,2677,76300,5.0
76600,2692,76600,5.0
76900,2703,76900,5.0
77200,2716,77200,5.0
77500,2729,77500,5.0
77800,2743,77800,5.0
78100,2756,78100,5.0
78400,2770,78400,5.0
78700,2783,78700,5.0
79000,2796,79000,5.0
79300,2811,79300,5.0
79600,2824,79600,5.0
79900,2838,79900,5.0
80200,2852,80200,5.0
80500,2864,80500,5.0
80800,2876,80800,5.0
81100,2892,81100,5.0
81400,2906,81400,5.0
81700,2921,81700,5.0
82000,2932,82000,5.0
82300,2946,82300,5.0
82600,2960,82600,5.0
82900,2974,82900,5.0
83200,2986,83200,5.0
83500,3000,83500,5.0
83800,3014,83800,5.0
84100,3028,84100,5.0
84400,3041,84400,5.0
84700,3056,84700,5.0
85000,3069,85000,5.0
85300,3082,85300,5.0
85600,3095,85600,5.0
85900,3110,85900,5.0
86200,3123,86200,5.0
86500,3135,86500,5.0
86800,3147,86800,5.0
87100,3165,87100,5.0
87400,3179,87400,5.0
87700,3193,87700,5.0
88000,3206,88000,5.0
88300,3220,88300,5.0
88600,3233,88600,5.0
88900,3246,88900,5.0
89200,3261,89200,5.0
89500,3276,89500,5.0
89800,3287,89800,5.0
90100,3301,90100,5.0
90400,3315,90400,5.0
90700,3327,90700,5.0
91000,3343,91000,5.0
91300,3360,91300,5.0
91600,3371,91600,5.0
91900,3385,91900,5.0
92200,3397,92200,5.0
92500,3413,92500,5.0
92800,3427,92800,5.0
93100,3439,93100,5.0
93400,3452,93400,5.0
93700,3467,93700,5.0
94000,3481,94000,5.0
94300,3494,94300,5.0
94600,3509,94600,5.0
94900,3523,94900,5.0
95200,3537,95200,5.0
95500,3551,95500,5.0
95800,3563,95800,5.0
96100,3577,96100,5.0
96400,3591,96400,5.0
96700,3606,96700,5.0
97000,3622,97000,5.0
97300,3636,97300,5.0
97600,3648,97600,5.0
97900,3662,97900,5.0
98200,3675,98200,5.0
98500,3690,98500,5.0
98800,3703,98800,5.0
99100,3718,99100,5.0
99400,3733,99400,5.0
99700,3745,99700,5.0
10000,-9,10000,2.5
10300,13,10300,2.5
10600,25,10600,2.5
10900,24,10900,2.5
11200,26,11200,2.5
11500,36,11500,2.5
11800,37,11800,2.5
12100,44,12100,2.5
12400,52,12400,2.5
12700,49,12700,2.5
13000,58,13000,2.5
13300,72,13300,2.5
13600,76,13600,2.5
13900,76,13900,2.5
14200,88,14200,2.5
14500,97,14500,2.5
14800,98,14800,2.5
15100,104,15100,2.5
15400,110,15400,2.5
15700,115,15700,2.5
16000,118,16000,2.5
16300,129,16300,2.5
16600,131,16600,2.5
16900,139,16900,2.5
17200,146,17200,2.5
17500,152,17500,2.5
17800,153,17800,2.5
18100,165,18100,2.5
18400,175,18400,2.5
18700,178,18700,2.5
19000,178,19000,2.5
19300,184,19300,2.5
19600,191,19600,2.5
19900,199,19900,2.5
20200,203,20200,2.5
20500,207,20500,2.5
20800,213,20800,2.5
21100,221,21100,2.5
21400,228,21400,2.5
21700,233,21700,2.5
22000,240,22000,2.5
22300,248,22300,2.5
22600,251,22600,2.5
22900,258,22900,2.5
23200,265,23200,2.5
23500,269,23500,2.5
23800,275,23800,2.5
24100,286,24100,2.5
24400,291,24400,2.5
24700,294,24700,2.5
25000,302,25000,2.5
25300,309,25300,2.5
25600,313,25600,2.5
25900,322,25900,2.5
26200,331,26200,2.5
26500,337,26500,2.5
26800,341,26800,2.5
27100,341,27100,2.5
27400,354,27400,2.5
27700,360,27700,2.5
28000,366,28000,2.5
28300,373,28300,2.5
28600,381,28600,2.5
28900,388,28900,2.5
29200,394,29200,2.5
29500,400,29500,2.5
29800,406,29800,2.5
30100,415,30100,2.5
30400,421,30400,2.5
30700,426,30700,2.5
31000,432,31000,2.5
31300,439,31300,2.5
31600,447,31600,2.5
31900,455,31900,2.5
32200,460,32200,2.5
32500,468,32500,2.5
32800,476,32800,2.5
33100,482,33100,2.5
33400,487,33400,2.5
33700,496,33700,2.5
34000,508,34000,2.5
34300,513,34300,2.5
34600,518,34600,2.5
34900,522,34900,2.5
35200,532,35200,2.5
35500,538,35500,2.5
35800,547,35800,2.5
36100,554,36100,2.5
36400,560,36400,2.5
36700,567,36700,2.5
37000,575,37000,2.5
37300,584,37300,2.5
37600,591,37600,2.5
37900,599,37900,2.5
38200,606,38200,2.5
38500,611,38500,2.5
38800,618,38800,2.5
39100,627,39100,2.5
39400,634,39400,2.5
39700,642,39700,2.5
40000,648,40000,2.5
40300,658,40300,2.5
40600,666,40600,2.5
40900,673,40900,2.5
41200,678,41200,2.5
41500,688,41500,2.5
41800,698,41800,2.5
42100,705,42100,2.5
42400,710,42400,2.5
42700,717,42700,2.5
43000,724,43000,2.5
43300,733,43300,2.5
43600,743,43600,2.5
43900,750,43900,2.5
44200,757,44200,2.5
44500,765,44500,2.5
44800,773,44800,2.5
45100,781,45100,2.5
45400,789,45400,2.5
45700,798,45700,2.5
46000,807,46000,2.5
46300,810,46300,2.5
46600,818,46600,2.5
46900,829,46900,2.5
47200,836,47200,2.5
47500,844,47500,2.5
47800,852,47800,2.5
48100,861,48100,2.5
48400,869,48400,2.5
48700,874,48700,2.5
49000,884,49000,2.5
49300,892,49300,2.5
49600,903,49600,2.5
49900,911,49900,2.5
50200,917,50200,2.5
50500,927,50500,2.5
50800,934,50800,2.5
51100,941,51100,2.5
51400,950,51400,2.5
51700,960,51700,2.5
52000,968,52000,2.5
52300,976,52300,2.5
52600,984,52600,2.5
52900,994,52900,2.5
53200,1002,53200,2.5
53500,1012,53500,2.5
53800,1020,53800,2.5
54100,1026,54100,2.5
54400,1034,54400,2.5
54700,1044,54700,2.5
55000,1053,55000,2.5
55300,1059,55300,2.5
55600,1069,55600,2.5
55900,1077,55900,2.5
56200,1086,56200,2.5
56500,1096,56500,2.5
56800,1104,56800,2.5
57100,1114,57100,2.5
57400,1123,57400,2.5
57700,1132,57700,2.5
58000,1140,58000,2.5
58300,1149,58300,2.5
58600,1158,58600,2.5
58900,1167,58900,2.5
59200,1174,59200,2.5
59500,1183,59500,2.5
59800,1193,59800,2.5
60100,1203,60100,2.5
60400,1212,60400,2.5
60700,1221,60700,2.5
61000,1230,61000,2.5
61300,1240,61300,2.5
61600,1249,61600,2.5
61900,1256,61900,2.5
62200,1265,62200,2.5
62500,1274,62500,2.5
62800,1286,62800,2.5
63100,1294,63100,2.5
63400,1303,63400,2.5
63700,1312,63700,2.5
64000,1321,64000,2.5
64300,1330,64300,2.5
64600,1341,64600,2.5
64900,1350,64900,2.5
65200,1361,65200,2.5
65500,1371,65500,2.5
65800,1377,65800,2.5
66100,1386,66100,2.5
66400,1392,66400,2.5
66700,1403,66700,2.5
67000,1416,67000,2.5
67300,1424,67300,2.5
67600,1435,67600,2.5
67900,1443,67900,2.5
68200,1453,68200,2.5
68500,1462,68500,2.5
68800,1472,68800,2.5
69100,1482,69100,2.5
69400,1493,69400,2.5
69700,1502,69700,2.5
70000,1511,70000,2.5
70300,1520,70300,2.5
70600,1530,70600,2.5
70900,1540,70900,2.5
71200,1549,71200,2.5
71500,1560,71500,2.5
71800,1570,71800,2.5
72100,1579,72100,2.5
72400,1590,72400,2.5
72700,1599,72700,2.5
73000,1610,73000,2.5
73300,1619,73300,2.5
73600,1628,73600,2.5
73900,1638,73900,2.5
74200,1649,74200,2.5
74500,1660,74500,2.5
74800,1669,74800,2.5
75100,1678,75100,2.5
75400,1689,75400,2.5
75700,1700,75700,2.5
76000,1709,76000,2.5
76300,1719,76300,2.5
76600,1729,76600,2.5
76900,1738,76900,2.5
77200,1750,77200,2.5
77500,1762,77500,2.5
77800,1771,77800,2.5
78100,1783,78100,2.5
78400,1792,78400,2.5
78700,1802,78700,2.5
79000,1812,79000,2.5
79300,1822,79300,2.5
79600,1834,79600,2.5
79900,1842,79900,2.5
80200,1854,80200,2.5
80500,1864,80500,2.5
80800,1876,80800,2.5
81100,1886,81100,2.5
81400,1895,81400,2.5
81700,1908,81700,2.5
82000,1918,82000,2.5
82300,1927,82300,2.5
82600,1940,82600,2.5
82900,1950,82900,2.5
83200,1960,83200,2.5
83500,1970,83500,2.5
83800,1981,83800,2.5
84100,1992,84100,2.5
84400,2003,84400,2.5
84700,2014,84700,2.5
85000,2024,85000,2.5
85300,2035,85300,2.5
85600,2045,85600,2.5
85900,2057,85900,2.5
86200,2068,86200,2.5
86500,2075,86500,2.5
86800,2087,86800,2.5
87100,2099,87100,2.5
87400,2112,87400,2.5
87700,2123,87700,2.5
88000,2134,88000,2.5
88300,2145,88300,2.5
88600,2158,88600,2.5
88900,2168,88900,2.5
89200,2178,89200,2.5
89500,2188,89500,2.5
89800,2199,89800,2.5
90100,2211,90100,2.5
90400,2222,90400,2.5
90700,2233,90700,2.5
91000,2246,91000,2.5
91300,2259,91300,2.5
91600,2266,91600,2.5
91900,2281,91900,2.5
92200,2293,92200,2.5
92500,2303,92500,2.5
92800,2314,92800,2.5
93100,2325,93100,2.5
93400,2336,93400,2.5
93700,2347,93700,2.5
94000,2360,94000,2.5
94300,2369,94300,2.5
94600,2382,94600,2.5
94900,2395,94900,2.5
95200,2407,95200,2.5
95500,2418,95500,2.5
95800,2430,95800,2.5
96100,2439,96100,2.5
96400,2452,96400,2.5
96700,2464,96700,2.5
97000,2476,97000,2.5
97300,2487,97300,2.5
97600,2499,97600,2.5
97900,2512,97900,2.5
98200,2523,98200,2.5
98500,2534,98500,2.5
98800,2546,98800,2.5
99100,2561,99100,2.5
99400,2571,99400,2.5
99700,2582,99700,2.5
10000,3,10000,1.25
10300,26,10300,1.25
10600,43,10600,1.25
10900,40,10900,1.25
11200,44,11200,1.25
11500,55,11500,1.25
11800,57,11800,1.25
12100,66,12100,1.25
12400,73,12400,1.25
12700,74,12700,1.25
13000,84,13000,1.25
13300,98,13300,1.25
13600,104,13600,1.25
13900,107,13900,1.25
14200,119,14200,1.25
14500,128,14500,1.25
14800,131,14800,1.25
15100,138,15100,1.25
15400,149,15400,1.25
15700,154,15700,1.25
16000,161,16000,1.25
16300,169,16300,1.25
16600,174,16600,1.25
16900,182,16900,1.25
17200,192,17200,1.25
17500,198,17500,1.25
17800,202,17800,1.25
18100,214,18100,1.25
18400,227,18400,1.25
18700,230,18700,1.25
19000,233,19000,1.25
19300,240,19300,1.25
19600,249,19600,1.25
19900,256,19900,1.25
20200,263,20200,1.25
20500,267,20500,1.25
20800,277,20800,1.25
21100,285,21100,1.25
21400,294,21400,1.25
21700,299,21700,1.25
22000,309,22000,1.25
22300,317,22300,1.25
