#, session_id, temperature, start_freq, increment, num_increments, num_avg, v_range, pga_gain, gain_factor
#small_nh4no3_4,19.8,10000,300,300,4,2,1,5.374746845316806e-08
freq, real, imaginary, concentration
10000,863,10000,0.625
10300,986,10300,0.625
10600,1093,10600,0.625
10900,1183,10900,0.625
11200,1273,11200,0.625
11500,1373,11500,0.625
11800,1465,11800,0.625
12100,1559,12100,0.625
12400,1652,12400,0.625
12700,1737,12700,0.625
13000,1830,13000,0.625
13300,1922,13300,0.625
13600,2009,13600,0.625
13900,2109,13900,0.625
14200,2184,14200,0.625
14500,2277,14500,0.625
14800,2352,14800,0.625
15100,2438,15100,0.625
15400,2518,15400,0.625
15700,2604,15700,0.625
16000,2688,16000,0.625
16300,2773,16300,0.625
16600,2850,16600,0.625
16900,2933,16900,0.625
17200,3014,17200,0.625
17500,3093,17500,0.625
17800,3174,17800,0.625
18100,3256,18100,0.625
18400,3339,18400,0.625
18700,3415,18700,0.625
19000,3488,19000,0.625
19300,3564,19300,0.625
19600,3640,19600,0.625
19900,3718,19900,0.625
20200,3803,20200,0.625
20500,3871,20500,0.625
20800,3954,20800,0.625
21100,4026,21100,0.625
21400,4101,21400,0.625
21700,4177,21700,0.625
22000,4253,22000,0.625
22300,4330,22300,0.625
22600,4405,22600,0.625
22900,4478,22900,0.625
23200,4552,23200,0.625
23500,4625,23500,0.625
23800,4670,23800,0.625
24100,4780,24100,0.625
24400,4849,24400,0.625
24700,4917,24700,0.625
25000,4954,25000,0.625
25300,5064,25300,0.625
25600,5133,25600,0.625
25900,5209,25900,0.625
26200,5284,26200,0.625
26500,5354,26500,0.625
26800,5423,26800,0.625
27100,5494,27100,0.625
27400,5568,27400,0.625
27700,5636,27700,0.625
28000,5711,28000,0.625
28300,5779,28300,0.625
28600,5848,28600,0.625
28900,5917,28900,0.625
29200,5986,29200,0.625
29500,6059,29500,0.625
29800,6126,29800,0.625
30100,6202,30100,0.625
30400,6269,30400,0.625
30700,6335,30700,0.625
31000,6405,31000,0.625
31300,6464,31300,0.625
31600,6544,31600,0.625
31900,6610,31900,0.625
32200,6679,32200,0.625
32500,6749,32500,0.625
32800,6819,32800,0.625
33100,6885,33100,0.625
33400,6953,33400,0.625
33700,7020,33700,0.625
34000,7091,34000,0.625
34300,7159,34300,0.625
34600,7222,34600,0.625
34900,7284,34900,0.625
35200,7357,35200,0.625
35500,7421,35500,0.625
35800,7496,35800,0.625
36100,7555,36100,0.625
36400,7624,36400,0.625
36700,7686,36700,0.625
37000,7754,37000,0.625
37300,7819,37300,0.625
37600,7891,37600,0.625
37900,7955,37900,0.625
38200,8021,38200,0.625
38500,8017,38500,0.625
38800,8148,38800,0.625
39100,8216,39100,0.625
39400,8280,39400,0.625
39700,8342,39700,0.625
40000,8410,40000,0.625
40300,8473,40300,0.625
40600,8538,40600,0.625
40900,8600,40900,0.625
41200,8663,41200,0.625
41500,8728,41500,0.625
41800,8794,41800,0.625
42100,8856,42100,0.625
42400,8919,42400,0.625
42700,8981,42700,0.625
43000,9043,43000,0.625
43300,9108,43300,0.625
43600,9174,43600,0.625
43900,9234,43900,0.625
44200,9288,44200,0.625
44500,9357,44500,0.625
44800,9421,44800,0.625
45100,9481,45100,0.625
45400,9608,45400,0.625
45700,9610,45700,0.625
46000,9671,46000,0.625
46300,9732,46300,0.625
46600,9789,46600,0.625
46900,9851,46900,0.625
47200,9912,47200,0.625
47500,9973,47500,0.625
47800,10034,47800,0.625
48100,10094,48100,0.625
48400,10149,48400,0.625
48700,10214,48700,0.625
49000,10275,49000,0.625
49300,10336,49300,0.625
49600,10394,49600,0.625
49900,10457,49900,0.625
50200,10512,50200,0.625
50500,10572,50500,0.625
50800,10634,50800,0.625
51100,10695,51100,0.625
51400,10752,51400,0.625
51700,10809,51700,0.625
52000,10868,52000,0.625
52300,10922,52300,0.625
52600,11002,52600,0.625
52900,11042,52900,0.625
53200,11094,53200,0.625
53500,11158,53500,0.625
53800,11213,53800,0.625
54100,11271,54100,0.625
54400,11327,54400,0.625
54700,11384,54700,0.625
55000,11446,55000,0.625
55300,11496,55300,0.625
55600,11418,55600,0.625
55900,11611,55900,0.625
56200,11666,56200,0.625
56500,11727,56500,0.625
56800,11779,56800,0.625
57100,11833,57100,0.625
57400,11890,57400,0.625
57700,11964,57700,0.625
58000,11998,58000,0.625
58300,12052,58300,0.625
58600,12109,58600,0.625
58900,12162,58900,0.625
59200,12219,59200,0.625
59500,12271,59500,0.625
59800,12327,59800,0.625
60100,12383,60100,0.625
60400,12435,60400,0.625
60700,12490,60700,0.625
61000,12542,61000,0.625
61300,12596,61300,0.625
61600,12649,61600,0.625
61900,12701,61900,0.625
62200,12752,62200,0.625
62500,13144,62500,0.625
62800,12856,62800,0.625
63100,12910,63100,0.625
63400,12961,63400,0.625
63700,13015,63700,0.625
64000,13065,64000,0.625
64300,13116,64300,0.625
64600,13167,64600,0.625
64900,13219,64900,0.625
65200,13278,65200,0.625
65500,13319,65500,0.625
65800,13367,65800,0.625
66100,13418,66100,0.625
66400,13473,66400,0.625
66700,13568,66700,0.625
67000,13571,67000,0.625
67300,13620,67300,0.625
67600,13669,67600,0.625
67900,13714,67900,0.625
68200,13767,68200,0.625
68500,13827,68500,0.625
68800,13864,68800,0.625
69100,13912,69100,0.625
69400,13960,69400,0.625
69700,14009,69700,0.625
70000,14059,70000,0.625
70300,14102,70300,0.625
70600,14148,70600,0.625
70900,14198,70900,0.625
71200,14245,71200,0.625
71500,14256,71500,0.625
71800,14336,71800,0.625
72100,14385,72100,0.625
72400,14424,72400,0.625
72700,14476,72700,0.625
73000,14518,73000,0.625
73300,14567,73300,0.625
73600,14611,73600,0.625
73900,14658,73900,0.625
74200,14703,74200,0.625
74500,14747,74500,0.625
74800,14793,74800,0.625
75100,14836,75100,0.625
75400,14879,75400,0.625
75700,14924,75700,0.625
76000,14966,76000,0.625
76300,15012,76300,0.625
76600,15054,76600,0.625
76900,15099,76900,0.625
77200,15140,77200,0.625
77500,15184,77500,0.625
77800,15225,77800,0.625
78100,15264,78100,0.625
78400,15309,78400,0.625
78700,15352,78700,0.625
79000,15392,79000,0.625
79300,15432,79300,0.625
79600,15476,79600,0.625
79900,15516,79900,0.625
80200,15557,80200,0.625
80500,15596,80500,0.625
80800,15636,80800,0.625
81100,15673,81100,0.625
81400,15721,81400,0.625
81700,15760,81700,0.625
82000,15796,82000,0.625
82300,15834,82300,0.625
82600,15874,82600,0.625
82900,15914,82900,0.625
83200,15940,83200,0.625
83500,15987,83500,0.625
83800,16025,83800,0.625
84100,16064,84100,0.625
84400,16102,84400,0.625
84700,16139,84700,0.625
85000,16175,85000,0.625
85300,16211,85300,0.625
85600,16248,85600,0.625
85900,16284,85900,0.625
86200,16313,86200,0.625
86500,16354,86500,0.625
86800,16391,86800,0.625
87100,16429,87100,0.625
87400,16463,87400,0.625
87700,16503,87700,0.625
88000,16538,88000,0.625
88300,16573,88300,0.625
88600,16598,88600,0.625
88900,16657,88900,0.625
89200,16664,89200,0.625
89500,16701,89500,0.625
89800,16743,89800,0.625
90100,16774,90100,0.625
90400,16806,90400,0.625
90700,16835,90700,0.625
91000,16875,91000,0.625
91300,16902,91300,0.625
91600,16935,91600,0.625
91900,16968,91900,0.625
92200,16999,92200,0.625
92500,17030,92500,0.625
92800,17058,92800,0.625
93100,17091,93100,0.625
93400,17122,93400,0.625
93700,17156,93700,0.625
94000,17187,94000,0.625
94300,17213,94300,0.625
94600,17243,94600,0.625
94900,17275,94900,0.625
95200,17317,95200,0.625
95500,17337,95500,0.625
95800,17365,95800,0.625
96100,17399,96100,0.625
96400,17432,96400,0.625
96700,17459,96700,0.625
97000,17488,97000,0.625
97300,17517,97300,0.625
97600,17541,97600,0.625
97900,17570,97900,0.625
98200,17596,98200,0.625
98500,17624,98500,0.625
98800,17651,98800,0.625
99100,17673,99100,0.625
99400,17705,99400,0.625
99700,17730,99700,0.625
10000,1306,10000,1.25
10300,1441,10300,1.25
10600,1566,10600,1.25
10900,1668,10900,1.25
11200,1776,11200,1.25
11500,1891,11500,1.25
11800,1994,11800,1.25
12100,2100,12100,1.25
12400,2208,12400,1.25
12700,2310,12700,1.25
13000,2417,13000,1.25
13300,2523,13300,1.25
13600,2625,13600,1.25
13900,2747,13900,1.25
14200,2830,14200,1.25
14500,2936,14500,1.25
14800,3028,14800,1.25
15100,3124,15100,1.25
15400,3222,15400,1.25
15700,3319,15700,1.25
16000,3418,16000,1.25
16300,3513,16300,1.25
16600,3607,16600,1.25
16900,3704,16900,1.25
17200,3799,17200,1.25
17500,3892,17500,1.25
17800,3983,17800,1.25
18100,4075,18100,1.25
18400,4177,18400,1.25
18700,4264,18700,1.25
19000,4354,19000,1.25
19300,4444,19300,1.25
19600,4527,19600,1.25
19900,4627,19900,1.25
20200,4719,20200,1.25
20500,4808,20500,1.25
20800,4887,20800,1.25
21100,4988,21100,1.25
21400,5076,21400,1.25
21700,5163,21700,1.25
22000,5253,22000,1.25
22300,5340,22300,1.25
22600,5428,22600,1.25
22900,5519,22900,1.25
23200,5602,23200,1.25
23500,5691,23500,1.25
23800,5767,23800,1.25
24100,5861,24100,1.25
24400,5963,24400,1.25
24700,6034,24700,1.25
25000,6159,25000,1.25
25300,6206,25300,1.25
25600,6291,25600,1.25
25900,6377,25900,1.25
26200,6466,26200,1.25
26500,6549,26500,1.25
26800,6630,26800,1.25
27100,6714,27100,1.25
27400,6795,27400,1.25
27700,6879,27700,1.25
28000,6967,28000,1.25
28300,7051,28300,1.25
28600,7132,28600,1.25
28900,7216,28900,1.25
29200,7296,29200,1.25
29500,7380,29500,1.25
29800,7456,29800,1.25
30100,7545,30100,1.25
30400,7626,30400,1.25
30700,7707,30700,1.25
31000,7785,31000,1.25
31300,7856,31300,1.25
31600,7949,31600,1.25
31900,8028,31900,1.25
32200,8108,32200,1.25
32500,8190,32500,1.25
32800,8272,32800,1.25
33100,8349,33100,1.25
33400,8432,33400,1.25
33700,8508,33700,1.25
34000,8591,34000,1.25
34300,8672,34300,1.25
34600,8746,34600,1.25
34900,8824,34900,1.25
35200,8904,35200,1.25
35500,8981,35500,1.25
35800,9064,35800,1.25
36100,9139,36100,1.25
36400,9215,36400,1.25
36700,9292,36700,1.25
37000,9371,37000,1.25
37300,9445,37300,1.25
37600,9525,37600,1.25
37900,9601,37900,1.25
38200,9680,38200,1.25
38500,9740,38500,1.25
38800,9830,38800,1.25
39100,9905,39100,1.25
39400,9982,39400,1.25
39700,10058,39700,1.25
40000,10121,40000,1.25
40300,10206,40300,1.25
40600,10284,40600,1.25
40900,10358,40900,1.25
41200,10429,41200,1.25
41500,10505,41500,1.25
41800,10580,41800,1.25
42100,10657,42100,1.25
42400,10727,42400,1.25
42700,10800,42700,1.25
43000,10873,43000,1.25
43300,10947,43300,1.25
43600,11023,43600,1.25
43900,11094,43900,1.25
44200,11163,44200,1.25
44500,11237,44500,1.25
44800,11309,44800,1.25
45100,11380,45100,1.25
45400,11398,45400,1.25
45700,11527,45700,1.25
46000,11597,46000,1.25
46300,11675,46300,1.25
46600,11733,46600,1.25
46900,11813,46900,1.25
47200,11877,47200,1.25
47500,11949,47500,1.25
47800,12018,47800,1.25
48100,12087,48100,1.25
48400,12142,48400,1.25
48700,12225,48700,1.25
49000,12295,49000,1.25
49300,12361,49300,1.25
49600,12435,49600,1.25
49900,12499,49900,1.25
50200,12569,50200,1.25
50500,12638,50500,1.25
50800,12706,50800,1.25
51100,12774,51100,1.25
51400,12837,51400,1.25
51700,12907,51700,1.25
52000,12977,52000,1.25
52300,13042,52300,1.25
52600,13099,52600,1.25
52900,13174,52900,1.25
53200,13235,53200,1.25
53500,13309,53500,1.25
53800,13369,53800,1.25
54100,13433,54100,1.25
54400,13500,54400,1.25
54700,13566,54700,1.25
55000,13628,55000,1.25
55300,13692,55300,1.25
55600,13705,55600,1.25
55900,13820,55900,1.25
56200,13887,56200,1.25
56500,13949,56500,1.25
56800,14012,56800,1.25
57100,14075,57100,1.25
57400,14137,57400,1.25
57700,14200,57700,1.25
58000,14263,58000,1.25
58300,14324,58300,1.25
58600,14382,58600,1.25
58900,14441,58900,1.25
59200,14507,59200,1.25
59500,14567,59500,1.25
59800,14628,59800,1.25
60100,14691,60100,1.25
60400,14752,60400,1.25
60700,14810,60700,1.25
61000,14870,61000,1.25
61300,14928,61300,1.25
61600,14986,61600,1.25
61900,15045,61900,1.25
62200,15101,62200,1.25
62500,15218,62500,1.25
62800,15218,62800,1.25
63100,15276,63100,1.25
63400,15333,63400,1.25
63700,15390,63700,1.25
64000,15444,64000,1.25
64300,15504,64300,1.25
64600,15559,64600,1.25
64900,15616,64900,1.25
65200,15674,65200,1.25
65500,15728,65500,1.25
65800,15780,65800,1.25
66100,15833,66100,1.25
66400,15892,66400,1.25
66700,15977,66700,1.25
67000,15999,67000,1.25
67300,16051,67300,1.25
67600,16105,67600,1.25
67900,16155,67900,1.25
68200,16204,68200,1.25
68500,16254,68500,1.25
68800,16312,68800,1.25
69100,16365,69100,1.25
69400,16416,69400,1.25
69700,16465,69700,1.25
70000,16512,70000,1.25
70300,16565,70300,1.25
70600,16617,70600,1.25
70900,16666,70900,1.25
71200,16719,71200,1.25
71500,16748,71500,1.25
71800,16811,71800,1.25
72100,16861,72100,1.25
72400,16910,72400,1.25
72700,16957,72700,1.25
73000,17003,73000,1.25
73300,17049,73300,1.25
73600,17098,73600,1.25
73900,17141,73900,1.25
74200,17189,74200,1.25
74500,17234,74500,1.25
74800,17281,74800,1.25
75100,17323,75100,1.25
75400,17368,75400,1.25
75700,17412,75700,1.25
76000,17457,76000,1.25
76300,17499,76300,1.25
76600,17544,76600,1.25
76900,17564,76900,1.25
77200,17629,77200,1.25
77500,17668,77500,1.25
77800,17709,77800,1.25
78100,17754,78100,1.25
78400,17792,78400,1.25
78700,17834,78700,1.25
79000,17875,79000,1.25
79300,17914,79300,1.25
79600,17954,79600,1.25
79900,17992,79900,1.25
80200,18030,80200,1.25
80500,18068,80500,1.25
80800,18110,80800,1.25
81100,18137,81100,1.25
81400,18186,81400,1.25
81700,18221,81700,1.25
82000,18257,82000,1.25
82300,18291,82300,1.25
82600,18328,82600,1.25
82900,18362,82900,1.25
83200,18416,83200,1.25
83500,18431,83500,1.25
83800,18464,83800,1.25
84100,18500,84100,1.25
84400,18532,84400,1.25
84700,18566,84700,1.25
85000,18598,85000,1.25
85300,18628,85300,1.25
85600,18660,85600,1.25
85900,18693,85900,1.25
86200,18725,86200,1.25
86500,18753,86500,1.25
86800,18784,86800,1.25
87100,18817,87100,1.25
87400,18845,87400,1.25
87700,18876,87700,1.25
88000,18903,88000,1.25
88300,18932,88300,1.25
88600,18955,88600,1.25
88900,18981,88900,1.25
89200,19013,89200,1.25
89500,19040,89500,1.25
89800,19066,89800,1.25
90100,19089,90100,1.25
90400,19114,90400,1.25
90700,19140,90700,1.25
91000,19178,91000,1.25
91300,19192,91300,1.25
91600,19216,91600,1.25
91900,19238,91900,1.25
92200,19264,92200,1.25
92500,19285,92500,1.25
92800,19309,92800,1.25
93100,19327,93100,1.25
93400,19346,93400,1.25
93700,19372,93700,1.25
94000,19390,94000,1.25
94300,19409,94300,1.25
94600,19436,94600,1.25
94900,19450,94900,1.25
95200,19465,95200,1.25
95500,19487,95500,1.25
95800,19504,95800,1.25
96100,19515,96100,1.25
96400,19541,96400,1.25
96700,19556,96700,1.25
97000,19572,97000,1.25
97300,19589,97300,1.25
97600,19604,97600,1.25
97900,19620,97900,1.25
98200,19633,98200,1.25
98500,19645,98500,1.25
98800,19662,98800,1.25
99100,19677,99100,1.25
99400,19691,99400,1.25
99700,19702,99700,1.25
10000,1689,10000,2.5
10300,1811,10300,2.5
10600,1946,10600,2.5
10900,2063,10900,2.5
11200,2179,11200,2.5
11500,2302,11500,2.5
11800,2417,11800,2.5
12100,2536,12100,2.5
12400,2651,12400,2.5
12700,2764,12700,2.5
13000,2882,13000,2.5
13300,2996,13300,2.5
13600,3107,13600,2.5
13900,3195,13900,2.5
14200,3332,14200,2.5
14500,3444,14500,2.5
14800,3548,14800,2.5
15100,3657,15100,2.5
15400,3763,15400,2.5
15700,3870,15700,2.5
16000,3971,16000,2.5
16300,4083,16300,2.5
16600,4185,16600,2.5
16900,4294,16900,2.5
17200,4396,17200,2.5
17500,4500,17500,2.5
17800,4603,17800,2.5
18100,4710,18100,2.5
18400,4816,18400,2.5
18700,4917,18700,2.5
19000,5014,19000,2.5
19300,5113,19300,2.5
19600,5220,19600,2.5
19900,5309,19900,2.5
20200,5417,20200,2.5
20500,5512,20500,2.5
20800,5609,20800,2.5
21100,5712,21100,2.5
21400,5812,21400,2.5
21700,5910,21700,2.5
22000,6007,22000,2.5
22300,6107,22300,2.5
22600,6210,22600,2.5
22900,6305,22900,2.5
23200,6397,23200,2.5
23500,6492,23500,2.5
23800,6603,23800,2.5
24100,6698,24100,2.5
24400,6781,24400,2.5
24700,6878,24700,2.5
25000,7088,25000,2.5
25300,7068,25300,2.5
25600,7160,25600,2.5
25900,7258,25900,2.5
26200,7351,26200,2.5
26500,7447,26500,2.5
26800,7538,26800,2.5
27100,7627,27100,2.5
27400,7722,27400,2.5
27700,7818,27700,2.5
28000,7909,28000,2.5
28300,7986,28300,2.5
28600,8094,28600,2.5
28900,8188,28900,2.5
29200,8276,29200,2.5
29500,8369,29500,2.5
29800,8463,29800,2.5
30100,8549,30100,2.5
30400,8643,30400,2.5
30700,8729,30700,2.5
31000,8820,31000,2.5
31300,8898,31300,2.5
31600,8997,31600,2.5
31900,9089,31900,2.5
32200,9175,32200,2.5
32500,9265,32500,2.5
32800,9347,32800,2.5
33100,9440,33100,2.5
33400,9525,33400,2.5
33700,9615,33700,2.5
34000,9706,34000,2.5
34300,9790,34300,2.5
34600,9875,34600,2.5
34900,9959,34900,2.5
35200,10047,35200,2.5
35500,10134,35500,2.5
35800,10218,35800,2.5
36100,10306,36100,2.5
36400,10386,36400,2.5
36700,10468,36700,2.5
37000,10562,37000,2.5
37300,10640,37300,2.5
37600,10729,37600,2.5
37900,10811,37900,2.5
38200,10890,38200,2.5
38500,11009,38500,2.5
38800,11055,38800,2.5
39100,11139,39100,2.5
39400,11219,39400,2.5
39700,11299,39700,2.5
40000,11382,40000,2.5
40300,11461,40300,2.5
40600,11543,40600,2.5
40900,11624,40900,2.5
41200,11704,41200,2.5
41500,11781,41500,2.5
41800,11861,41800,2.5
42100,11942,42100,2.5
42400,12018,42400,2.5
42700,12095,42700,2.5
43000,12173,43000,2.5
43300,12253,43300,2.5
43600,12332,43600,2.5
43900,12408,43900,2.5
44200,12492,44200,2.5
44500,12559,44500,2.5
44800,12634,44800,2.5
45100,12712,45100,2.5
45400,12829,45400,2.5
45700,12863,45700,2.5
46000,12939,46000,2.5
46300,13010,46300,2.5
46600,13084,46600,2.5
46900,13158,46900,2.5
47200,13231,47200,2.5
47500,13306,47500,2.5
47800,13374,47800,2.5
48100,13450,48100,2.5
48400,13537,48400,2.5
48700,13598,48700,2.5
49000,13664,49000,2.5
49300,13730,49300,2.5
49600,13807,49600,2.5
49900,13877,49900,2.5
50200,13946,50200,2.5
50500,14015,50500,2.5
50800,14085,50800,2.5
51100,14153,51100,2.5
51400,14222,51400,2.5
51700,14289,51700,2.5
52000,14358,52000,2.5
52300,14425,52300,2.5
52600,14484,52600,2.5
52900,14556,52900,2.5
53200,14626,53200,2.5
53500,14695,53500,2.5
53800,14757,53800,2.5
54100,14821,54100,2.5
54400,14886,54400,2.5
54700,14948,54700,2.5
55000,15015,55000,2.5
55300,15075,55300,2.5
55600,15258,55600,2.5
55900,15205,55900,2.5
56200,15266,56200,2.5
56500,15332,56500,2.5
56800,15393,56800,2.5
57100,15455,57100,2.5
57400,15515,57400,2.5
57700,15577,57700,2.5
58000,15635,58000,2.5
58300,15691,58300,2.5
58600,15757,58600,2.5
58900,15819,58900,2.5
59200,15872,59200,2.5
59500,15930,59500,2.5
59800,15989,59800,2.5
60100,16049,60100,2.5
60400,16105,60400,2.5
60700,16160,60700,2.5
61000,16219,61000,2.5
61300,16277,61300,2.5
61600,16332,61600,2.5
61900,16386,61900,2.5
62200,16440,62200,2.5
62500,16274,62500,2.5
62800,16548,62800,2.5
63100,16605,63100,2.5
63400,16657,63400,2.5
63700,16707,63700,2.5
64000,16763,64000,2.5
64300,16815,64300,2.5
64600,16867,64600,2.5
64900,16918,64900,2.5
65200,16985,65200,2.5
65500,17021,65500,2.5
65800,17074,65800,2.5
66100,17118,66100,2.5
66400,17175,66400,2.5
66700,17183,66700,2.5
67000,17268,67000,2.5
67300,17315,67300,2.5
67600,17362,67600,2.5
67900,17410,67900,2.5
68200,17447,68200,2.5
68500,17507,68500,2.5
68800,17549,68800,2.5
69100,17596,69100,2.5
69400,17641,69400,2.5
69700,17684,69700,2.5
70000,17724,70000,2.5
70300,17771,70300,2.5
70600,17814,70600,2.5
70900,17863,70900,2.5
71200,17904,71200,2.5
71500,18083,71500,2.5
71800,17988,71800,2.5
72100,18029,72100,2.5
72400,18077,72400,2.5
72700,18111,72700,2.5
73000,18151,73000,2.5
73300,18192,73300,2.5
73600,18230,73600,2.5
73900,18270,73900,2.5
74200,18310,74200,2.5
74500,18345,74500,2.5
74800,18385,74800,2.5
75100,18423,75100,2.5
75400,18458,75400,2.5
75700,18494,75700,2.5
76000,18533,76000,2.5
76300,18566,76300,2.5
76600,18603,76600,2.5
76900,18612,76900,2.5
77200,18670,77200,2.5
77500,18704,77500,2.5
77800,18737,77800,2.5
78100,18773,78100,2.5
78400,18803,78400,2.5
78700,18836,78700,2.5
79000,18865,79000,2.5
79300,18898,79300,2.5
79600,18933,79600,2.5
79900,18961,79900,2.5
80200,18990,80200,2.5
80500,19020,80500,2.5
80800,19050,80800,2.5
81100,19074,81100,2.5
81400,19106,81400,2.5
81700,19135,81700,2.5
82000,19161,82000,2.5
82300,19187,82300,2.5
82600,19213,82600,2.5
82900,19240,82900,2.5
83200,19245,83200,2.5
83500,19289,83500,2.5
83800,19315,83800,2.5
84100,19339,84100,2.5
84400,19363,84400,2.5
84700,19387,84700,2.5
85000,19411,85000,2.5
85300,19431,85300,2.5
85600,19452,85600,2.5
85900,19474,85900,2.5
86200,19490,86200,2.5
86500,19516,86500,2.5
86800,19535,86800,2.5
87100,19557,87100,2.5
87400,19577,87400,2.5
87700,19595,87700,2.5
88000,19611,88000,2.5
88300,19632,88300,2.5
88600,19650,88600,2.5
88900,19676,88900,2.5
89200,19682,89200,2.5
89500,19699,89500,2.5
89800,19715,89800,2.5
90100,19728,90100,2.5
90400,19744,90400,2.5
90700,19757,90700,2.5
91000,19774,91000,2.5
91300,19790,91300,2.5
